# Matter power spectrum P(k) at redshift z=0
# for k=1.05281e-05 to 7.52753 h/Mpc,
# number of wavenumbers equal to 698
#    1:k (h/Mpc)              2:P (Mpc/h)^3        
       1.052808673426e-05       4.927704916601e+01 
       2.352858924850e-05       1.068021548501e+02 
       3.657561012704e-05       1.632553984531e+02 
       4.970490954058e-05       2.192744222130e+02 
       6.295284960798e-05       2.752190609630e+02 
       7.635672464984e-05       3.313572633583e+02 
       8.995510218379e-05       3.879172438039e+02 
       1.037881792750e-04       4.451085515996e+02 
       1.178981588899e-04       5.031329389103e+02 
       1.323296509351e-04       5.621911246195e+02 
       1.471301026669e-04       6.224871815464e+02 
       1.623502630831e-04       6.842321943398e+02 
       1.780446857044e-04       7.476469642589e+02 
       1.942722737312e-04       8.129650487498e+02 
       2.110968708146e-04       8.804353742242e+02 
       2.285878994669e-04       9.503244923993e+02 
       2.468210472554e-04       1.022919549478e+03 
       2.658789981420e-04       1.098530616682e+03 
       2.858522023285e-04       1.177493410352e+03 
       3.068396723921e-04       1.260171779865e+03 
       3.289497859130e-04       1.346960098601e+03 
       3.523010647711e-04       1.438285411402e+03 
       3.770228884296e-04       1.534609061263e+03 
       4.032560825723e-04       1.636427824845e+03 
       4.311533055425e-04       1.744273598474e+03 
       4.608791338532e-04       1.858712317674e+03 
       4.926097263128e-04       1.980340556985e+03 
       5.265319271458e-04       2.109780004868e+03 
       5.628416567827e-04       2.247669051810e+03 
       6.017414415631e-04       2.394651047308e+03 
       6.434369587909e-04       2.551358932361e+03 
       6.881325299149e-04       2.718396139368e+03 
       7.360255881959e-04       2.896314146179e+03 
       7.873002779907e-04       3.085587458199e+03 
       8.421205003064e-04       3.286587525697e+03 
       9.006228800244e-04       3.499557561367e+03 
       9.629102586023e-04       3.724590612375e+03 
       1.029046371625e-03       3.961613496841e+03 
       1.099052320508e-03       4.210378606720e+03 
       1.172905281518e-03       4.470465786915e+03 
       1.250539634497e-03       4.741292227871e+03 
       1.331850389704e-03       5.022133522450e+03 
       1.416698510612e-03       5.312190295127e+03 
       1.504917533074e-03       5.610529174676e+03 
       1.596320800420e-03       5.916157468635e+03 
       1.690708669444e-03       6.228076338548e+03 
       1.787875165225e-03       6.545290640926e+03 
       1.887613730830e-03       6.866831090618e+03 
       1.989721890091e-03       7.191771142171e+03 
       2.094004788356e-03       7.519239144475e+03 
       2.200277682713e-03       7.848426712108e+03 
       2.308367517734e-03       8.178592096961e+03 
       2.418113751445e-03       8.509061830579e+03 
       2.529368598707e-03       8.839229278151e+03 
       2.641996845201e-03       9.168552057387e+03 
       2.755875362810e-03       9.496547096821e+03 
       2.870892432241e-03       9.822786232424e+03 
       2.986946954714e-03       1.014689960163e+04 
       3.103947613398e-03       1.046855368272e+04 
       3.221812027837e-03       1.078746311625e+04 
       3.340465930702e-03       1.110337567729e+04 
       3.459842385662e-03       1.141607864000e+04 
       3.579881057369e-03       1.172538406103e+04 
       3.700527538939e-03       1.203113110535e+04 
       3.821732738472e-03       1.233318550449e+04 
       3.943452323554e-03       1.263142909768e+04 
       4.065646221063e-03       1.292576497061e+04 
       4.188278168679e-03       1.321611522138e+04 
       4.311315313972e-03       1.350240886639e+04 
       4.434727856837e-03       1.378459589042e+04 
       4.558488731065e-03       1.406263293733e+04 
       4.682573321059e-03       1.433648546486e+04 
       4.806959209934e-03       1.460610933625e+04 
       4.931625955575e-03       1.487152914131e+04 
       5.056554891509e-03       1.513273400611e+04 
       5.181728949793e-03       1.538966325031e+04 
       5.307132503374e-03       1.564242538507e+04 
       5.432751225699e-03       1.589101150808e+04 
       5.558571965559e-03       1.613532053438e+04 
       5.684582635425e-03       1.637549013491e+04 
       5.810772111707e-03       1.661140952184e+04 
       5.937130145567e-03       1.684321074583e+04 
       6.063647283080e-03       1.707092586842e+04 
       6.190314793671e-03       1.729440817636e+04 
       6.317124605899e-03       1.751391202764e+04 
       6.444069249759e-03       1.772959961495e+04 
       6.571141804772e-03       1.794087923979e+04 
       6.698335853232e-03       1.814853197527e+04 
       6.825645438037e-03       1.835203767097e+04 
       6.953065024609e-03       1.855156154247e+04 
       7.080589466470e-03       1.874731232026e+04 
       7.208213974067e-03       1.893927567428e+04 
       7.335934086534e-03       1.912745784135e+04 
       7.463745646050e-03       1.931178056573e+04 
       7.591644774551e-03       1.949234760289e+04 
       7.719627852549e-03       1.966931554377e+04 
       7.847691499835e-03       1.984254463500e+04 
       7.975832557900e-03       2.001219827199e+04 
       8.104048073873e-03       2.017827768789e+04 
       8.232335285865e-03       2.034073846413e+04 
       8.360691609549e-03       2.049980377373e+04 
       8.489114625883e-03       2.065530533359e+04 
       8.617602069851e-03       2.080739205424e+04 
       8.746151820137e-03       2.095612820480e+04 
       8.874761889647e-03       2.110145375606e+04 
       9.003430416790e-03       2.124346840563e+04 
       9.132155657464e-03       2.138217136657e+04 
       9.260935977668e-03       2.151763526399e+04 
       9.389769846707e-03       2.164989699970e+04 
       9.518655830914e-03       2.177898488294e+04 
       9.647592587857e-03       2.190493009549e+04 
       9.776578860994e-03       2.202775440083e+04 
       9.905613474729e-03       2.214749961029e+04 
       1.003469532983e-02       2.226422567312e+04 
       1.016382339922e-02       2.237792086108e+04 
       1.029299672401e-02       2.248873239491e+04 
       1.042221440992e-02       2.259645764321e+04 
       1.055147562387e-02       2.270135919443e+04 
       1.068077959088e-02       2.280339358317e+04 
       1.081012559114e-02       2.290258402974e+04 
       1.093951295736e-02       2.299899118142e+04 
       1.106894107222e-02       2.309257699785e+04 
       1.119840936608e-02       2.318344880554e+04 
       1.132791731481e-02       2.327157930165e+04 
       1.145746443775e-02       2.335707349807e+04 
       1.158705029591e-02       2.343990285045e+04 
       1.171667449017e-02       2.352011965263e+04 
       1.184633665969e-02       2.359774714601e+04 
       1.197603648040e-02       2.367284687571e+04 
       1.210577366362e-02       2.374534380792e+04 
       1.223554795473e-02       2.381542361507e+04 
       1.236535913201e-02       2.388301260593e+04 
       1.249520700545e-02       2.394824347455e+04 
       1.262509141578e-02       2.401089262173e+04 
       1.275501223345e-02       2.407127013061e+04 
       1.288496935775e-02       2.412926236914e+04 
       1.301496271599e-02       2.418493746994e+04 
       1.314499226272e-02       2.423834198797e+04 
       1.327505797901e-02       2.428946649638e+04 
       1.340515987180e-02       2.433832597453e+04 
       1.353529797330e-02       2.438499306220e+04 
       1.366547234042e-02       2.442946768790e+04 
       1.379568305429e-02       2.447178567868e+04 
       1.392593021973e-02       2.451193317398e+04 
       1.405621396487e-02       2.455004200611e+04 
       1.418653444076e-02       2.458607493521e+04 
       1.431689182101e-02       2.461995545091e+04 
       1.444728630145e-02       2.465191127071e+04 
       1.457771809988e-02       2.468184544707e+04 
       1.470818745581e-02       2.470981601518e+04 
       1.483869463022e-02       2.473573894044e+04 
       1.496923990539e-02       2.475978557191e+04 
       1.509982358472e-02       2.478190744253e+04 
       1.523044599259e-02       2.480216680607e+04 
       1.536110747427e-02       2.482055495474e+04 
       1.549180839581e-02       2.483714440560e+04 
       1.562254914397e-02       2.485184612542e+04 
       1.575333012620e-02       2.486479896980e+04 
       1.588415177062e-02       2.487601373175e+04 
       1.601501452598e-02       2.488548190284e+04 
       1.614591886173e-02       2.489325465845e+04 
       1.627686526807e-02       2.489929614084e+04 
       1.640785425596e-02       2.490368284040e+04 
       1.653888635724e-02       2.490651296563e+04 
       1.666996212473e-02       2.490753773708e+04 
       1.680108213232e-02       2.490705440146e+04 
       1.693224697516e-02       2.490494773205e+04 
       1.706345726977e-02       2.490132196234e+04 
       1.719471365421e-02       2.489622922473e+04 
       1.732601678832e-02       2.488947343133e+04 
       1.745736735386e-02       2.488128715949e+04 
       1.758876605479e-02       2.487160150047e+04 
       1.772021361748e-02       2.486051307148e+04 
       1.785171079099e-02       2.484793524473e+04 
       1.798325834731e-02       2.483397473437e+04 
       1.811485708169e-02       2.481862370095e+04 
       1.824650781291e-02       2.480188635657e+04 
       1.837821138366e-02       2.478380780528e+04 
       1.850996866080e-02       2.476443489150e+04 
       1.864178053581e-02       2.474368819285e+04 
       1.877364792508e-02       2.472164834577e+04 
       1.890557177037e-02       2.469837253656e+04 
       1.903755303916e-02       2.467382288666e+04 
       1.916959272514e-02       2.464810090219e+04 
       1.930169184858e-02       2.462110040936e+04 
       1.943385145688e-02       2.459287868184e+04 
       1.956607262496e-02       2.456361641293e+04 
       1.969835645580e-02       2.453304454885e+04 
       1.983070408099e-02       2.450136456253e+04 
       1.996311666120e-02       2.446860836231e+04 
       2.009559538677e-02       2.443474889443e+04 
       2.022814147827e-02       2.439977206209e+04 
       2.036075618713e-02       2.436373699516e+04 
       2.049344079619e-02       2.432664367813e+04 
       2.062619662040e-02       2.428852040156e+04 
       2.075902500742e-02       2.424942251198e+04 
       2.089192733834e-02       2.420943997071e+04 
       2.102490502836e-02       2.416825938141e+04 
       2.115795952753e-02       2.412621391744e+04 
       2.129109232145e-02       2.408322306629e+04 
       2.142430493210e-02       2.403923807715e+04 
       2.155759891859e-02       2.399447446946e+04 
       2.169097587801e-02       2.394863108229e+04 
       2.182443744626e-02       2.390206277715e+04 
       2.195798529890e-02       2.385462984857e+04 
       2.209162115210e-02       2.380629371262e+04 
       2.222534676353e-02       2.375705549092e+04 
       2.235916393333e-02       2.370709380020e+04 
       2.249307450509e-02       2.365642438954e+04 
       2.262708036687e-02       2.360491396940e+04 
       2.276118345226e-02       2.355255705719e+04 
       2.289538574145e-02       2.349948880300e+04 
       2.302968926233e-02       2.344564801132e+04 
       2.316409609169e-02       2.339123789944e+04 
       2.329860835636e-02       2.333602464919e+04 
       2.343322823444e-02       2.328004076081e+04 
       2.356795795659e-02       2.322340442996e+04 
       2.370279980730e-02       2.316619128328e+04 
       2.383775612625e-02       2.310829823839e+04 
       2.397282930970e-02       2.304968838473e+04 
       2.410802181192e-02       2.299065611951e+04 
       2.424333614662e-02       2.293085078167e+04 
       2.437877488857e-02       2.287054952123e+04 
       2.451434067505e-02       2.280960787492e+04 
       2.465003620759e-02       2.274798619317e+04 
       2.478586425355e-02       2.268589351131e+04 
       2.492182764790e-02       2.262334710784e+04 
       2.505792929499e-02       2.256016494582e+04 
       2.519417217041e-02       2.249665584521e+04 
       2.533055932288e-02       2.243245079639e+04 
       2.546709387619e-02       2.236777346640e+04 
       2.560377903131e-02       2.230275894408e+04 
       2.574061806840e-02       2.223718114439e+04 
       2.587761434906e-02       2.217113347300e+04 
       2.601477131852e-02       2.210472148583e+04 
       2.615209250799e-02       2.203777395045e+04 
       2.628958153707e-02       2.197047304788e+04 
       2.642724211621e-02       2.190275801059e+04 
       2.656507804928e-02       2.183471376453e+04 
       2.670309323625e-02       2.176624930792e+04 
       2.684129167594e-02       2.169733505351e+04 
       2.697967746885e-02       2.162811001060e+04 
       2.711825482014e-02       2.155855988931e+04 
       2.725702804266e-02       2.148867315881e+04 
       2.739600156014e-02       2.141841806026e+04 
       2.753517991045e-02       2.134789417981e+04 
       2.767456774903e-02       2.127700184055e+04 
       2.781416985240e-02       2.120588066435e+04 
       2.795399112180e-02       2.113451821268e+04 
       2.809403658703e-02       2.106275487013e+04 
       2.823431141033e-02       2.099082991385e+04 
       2.837482089052e-02       2.091854865643e+04 
       2.851557046719e-02       2.084603523763e+04 
       2.865656572515e-02       2.077328845968e+04 
       2.879781239898e-02       2.070026661315e+04 
       2.893931637776e-02       2.062716138230e+04 
       2.908108371007e-02       2.055376037599e+04 
       2.922312060906e-02       2.048012868262e+04 
       2.936543345782e-02       2.040634120083e+04 
       2.950802881494e-02       2.033236120725e+04 
       2.965091342027e-02       2.025828830458e+04 
       2.979409420095e-02       2.018383524199e+04 
       2.993757827766e-02       2.010937865685e+04 
       3.008137297114e-02       2.003474507097e+04 
       3.022548580902e-02       1.995998324489e+04 
       3.036992453286e-02       1.988493148353e+04 
       3.051469710554e-02       1.980978271031e+04 
       3.065981171900e-02       1.973463747367e+04 
       3.080527680224e-02       1.965931705241e+04 
       3.095110102970e-02       1.958390084254e+04 
       3.109729333004e-02       1.950840626231e+04 
       3.124386289530e-02       1.943274338167e+04 
       3.139081919040e-02       1.935694092747e+04 
       3.153817196318e-02       1.928113043939e+04 
       3.168593125484e-02       1.920520290131e+04 
       3.183410741084e-02       1.912922754105e+04 
       3.198271109235e-02       1.905307741699e+04 
       3.213175328825e-02       1.897703124623e+04 
       3.228124532761e-02       1.890080401941e+04 
       3.243119889292e-02       1.882467926887e+04 
       3.258162603376e-02       1.874837840562e+04 
       3.273253918136e-02       1.867199028159e+04 
       3.288395116368e-02       1.859562545009e+04 
       3.303587522135e-02       1.851925926878e+04 
       3.318832502441e-02       1.844270559065e+04 
       3.334131468986e-02       1.836631853146e+04 
       3.349485880011e-02       1.828988290729e+04 
       3.364897242244e-02       1.821336840516e+04 
       3.380367112941e-02       1.813685075433e+04 
       3.395897102040e-02       1.806023357094e+04 
       3.411488874427e-02       1.798375646594e+04 
       3.427144152330e-02       1.790713534452e+04 
       3.442864717833e-02       1.783064977749e+04 
       3.458652415539e-02       1.775415060040e+04 
       3.474509155382e-02       1.767753619772e+04 
       3.490436915585e-02       1.760107481255e+04 
       3.506437745803e-02       1.752456459738e+04 
       3.522513770439e-02       1.744804493165e+04 
       3.538667192150e-02       1.737164635530e+04 
       3.554900295570e-02       1.729499840112e+04 
       3.571215451249e-02       1.721865040695e+04 
       3.587615119828e-02       1.714223618684e+04 
       3.604101856477e-02       1.706574378279e+04 
       3.620678315601e-02       1.698938438293e+04 
       3.637347255842e-02       1.691312379398e+04 
       3.654111545403e-02       1.683669107942e+04 
       3.670974167710e-02       1.676015360437e+04 
       3.687938227437e-02       1.668407751043e+04 
       3.705006956943e-02       1.660777199874e+04 
       3.722183723122e-02       1.653155649421e+04 
       3.739472034724e-02       1.645529738782e+04 
       3.756875550181e-02       1.637909537608e+04 
       3.774398085966e-02       1.630295366258e+04 
       3.792043625547e-02       1.622673964045e+04 
       3.809816328979e-02       1.615058512517e+04 
       3.827720543190e-02       1.607443987169e+04 
       3.845760813015e-02       1.599840147833e+04 
       3.863941893057e-02       1.592227206670e+04 
       3.882268760443e-02       1.584614742613e+04 
       3.900746628549e-02       1.577018270577e+04 
       3.919380961801e-02       1.569403784048e+04 
       3.938177491633e-02       1.561795520134e+04 
       3.957142233728e-02       1.554187416230e+04 
       3.976281506663e-02       1.546587180198e+04 
       3.995601952083e-02       1.538982825697e+04 
       4.015110556577e-02       1.531370852606e+04 
       4.034814675414e-02       1.523753524982e+04 
       4.054722058333e-02       1.516152966033e+04 
       4.074840877607e-02       1.508522710489e+04 
       4.095179758618e-02       1.500905871593e+04 
       4.115747813216e-02       1.493283465017e+04 
       4.136554676170e-02       1.485651737051e+04 
       4.157610545058e-02       1.478013751262e+04 
       4.178926223978e-02       1.470377786971e+04 
       4.200513171540e-02       1.462735947516e+04 
       4.222383553632e-02       1.455064513225e+04 
       4.244550301537e-02       1.447397227843e+04 
       4.267027176060e-02       1.439717121600e+04 
       4.289828838407e-02       1.432035697064e+04 
       4.312970928696e-02       1.424321195832e+04 
       4.336470153057e-02       1.416610906074e+04 
       4.360344380498e-02       1.408876068867e+04 
       4.384612750828e-02       1.401127242655e+04 
       4.409295795167e-02       1.393352223118e+04 
       4.434415570837e-02       1.385565340041e+04 
       4.459995812672e-02       1.377750345740e+04 
       4.486062103189e-02       1.369917992283e+04 
       4.512642064442e-02       1.362050687858e+04 
       4.539765574891e-02       1.354155600540e+04 
       4.567465015234e-02       1.346236337614e+04 
       4.595775547843e-02       1.338275617699e+04 
       4.624735435367e-02       1.330278901100e+04 
       4.654386405088e-02       1.322242629178e+04 
       4.684774066961e-02       1.314166974654e+04 
       4.715948394842e-02       1.306035318416e+04 
       4.747964282379e-02       1.297860120195e+04 
       4.780882187505e-02       1.289625060824e+04 
       4.814768882425e-02       1.281332610889e+04 
       4.849698329841e-02       1.272969878564e+04 
       4.885752710771e-02       1.264541248592e+04 
       4.923023635317e-02       1.256022409783e+04 
       4.961613575136e-02       1.247426533883e+04 
       5.001637565841e-02       1.238731171789e+04 
       5.043225239544e-02       1.229936429078e+04 
       5.086523262998e-02       1.221022031919e+04 
       5.131698276258e-02       1.211987790753e+04 
       5.178940451551e-02       1.202806884833e+04 
       5.228467823599e-02       1.193472472885e+04 
       5.280531582480e-02       1.183961190546e+04 
       5.335422570040e-02       1.174259959986e+04 
       5.393479282158e-02       1.164329246487e+04 
       5.455097751857e-02       1.154148623584e+04 
       5.520743769285e-02       1.143667824963e+04 
       5.590967973227e-02       1.132852666953e+04 
       5.666424399208e-02       1.121640770069e+04 
       5.747893033966e-02       1.109953159499e+04 
       5.836306687919e-02       1.097705196308e+04 
       5.932781827243e-02       1.084771546461e+04 
       6.038651484477e-02       1.070981836249e+04 
       6.155495275578e-02       1.056144044077e+04 
       6.285155837722e-02       1.039966464932e+04 
