# dimensionless total lensed [l(l+1)/2pi] C_l's
# for l=2 to 2500, i.e. number of multipoles equal to 2499
#
# -> if you prefer output in CAMB/HealPix/LensPix units/order, set 'format' to 'camb' in input file
# -> if you don't want to see such a header, set 'headers' to 'no' in input file
# -> for CMB lensing (phi), these are C_l^phi-phi for the lensing potential.
#    Remember the conversion factors:
#    C_l^dd (deflection) = l(l+1) C_l^phi-phi
#    C_l^gg (shear/convergence) = 1/4 (l(l+1))^2 C_l^phi-phi
#
# 1:l     2:TT                     3:EE                     4:TE                     5:BB                     6:phiphi                 7:TPhi                   8:Ephi               
    2       1.495442799765e-10       7.309279994015e-15       4.815171146893e-13       2.538223245690e-19       8.603320153649e-09       4.849502410455e-10      -2.515798305153e-12 
    3       1.409375747840e-10       1.238842439294e-14       6.068719460363e-13       5.078772985146e-19       5.391846762669e-09       3.465160926845e-10      -2.211468923687e-12 
    4       1.324639076110e-10       1.446597333008e-14       6.277975856405e-13       8.469709620404e-19       3.761740370962e-09       2.636064806417e-10      -1.764096536069e-12 
    5       1.257529116350e-10       1.337980659377e-14       5.879550137528e-13       1.271391006498e-18       2.810397516093e-09       2.090630644796e-10      -1.309522411267e-12 
    6       1.208087858687e-10       1.032488897130e-14       5.173987885226e-13       1.781478425548e-18       2.196043582490e-09       1.706669386532e-10      -8.948478077607e-13 
    7       1.173342609837e-10       6.843978014641e-15       4.365330641603e-13       2.377616200173e-18       1.770939827717e-09       1.423251687928e-10      -5.443912769208e-13 
    8       1.150094685807e-10       4.045434429984e-15       3.576614965768e-13       3.060216760942e-18       1.462527083041e-09       1.206730554784e-10      -2.689406536034e-13 
    9       1.135900555477e-10       2.340187030982e-15       2.880577322156e-13       3.829708723447e-18       1.231155208773e-09       1.036922835861e-10      -7.010757378939e-14 
   10       1.128613763863e-10       1.576340272932e-15       2.317780270706e-13       4.686523420092e-18       1.052826136673e-09       9.012418308285e-11       5.744858736336e-14 
   11       1.126831660355e-10       1.351537339901e-15       1.905546665972e-13       5.631081757425e-18       8.850996247461e-10       7.935087741988e-11       1.233241487153e-13 
   12       1.129467935601e-10       1.294976740934e-15       1.640598906594e-13       6.663781912722e-18       7.733642077385e-10       7.014287119248e-11       1.421542125956e-13 
   13       1.135322075258e-10       1.208460572951e-15       1.505250134472e-13       7.784988347151e-18       6.816494037784e-10       6.261755154612e-11       1.277268357945e-13 
   14       1.143409370095e-10       1.063786921311e-15       1.473981274166e-13       8.995022557083e-18       6.053446402193e-10       5.609119014419e-11       9.279011566223e-14 
   15       1.153793824218e-10       9.208353658355e-16       1.516646628432e-13       1.029415591225e-17       5.411203937249e-10       5.063936230671e-11       4.958890248562e-14 
   16       1.166086545233e-10       8.410804404403e-16       1.602809941991e-13       1.168260484239e-17       4.865184800963e-10       4.601906105974e-11       7.229786814053e-15 
   17       1.179457127849e-10       8.419360270394e-16       1.707677626435e-13       1.316052853645e-17       4.396803950943e-10       4.203019994016e-11      -2.793144058832e-14 
   18       1.193946244656e-10       8.958972408463e-16       1.812583309445e-13       1.472802798386e-17       3.990278860909e-10       3.848719647545e-11      -5.233653990347e-14 
   19       1.209633211247e-10       9.702809442957e-16       1.907730030485e-13       1.638515492287e-17       3.639185057810e-10       3.536064252022e-11      -6.510492244078e-14 
   20       1.225959223124e-10       1.031608000096e-15       1.985684992936e-13       1.813190356663e-17       3.329958054501e-10       3.259775246804e-11      -6.707204807145e-14 
   21       1.243043455889e-10       1.082805535939e-15       2.047243651965e-13       1.996823591362e-17       3.057739228199e-10       3.015428295127e-11      -6.038739536725e-14 
   22       1.260882860991e-10       1.141986410372e-15       2.096933565691e-13       2.189407186012e-17       2.816024034165e-10       2.794878156450e-11      -4.841014394650e-14 
   23       1.279369549114e-10       1.228546334831e-15       2.139233074091e-13       2.390931928223e-17       2.601492040493e-10       2.595023405864e-11      -3.407848325914e-14 
   24       1.298182735552e-10       1.361084257267e-15       2.179345082248e-13       2.601386410191e-17       2.409184421361e-10       2.412517994900e-11      -2.047680188472e-14 
   25       1.317491080594e-10       1.540009842327e-15       2.222216920720e-13       2.820760535599e-17       2.236838710620e-10       2.248297548022e-11      -9.446759311942e-15 
   26       1.337417782221e-10       1.758307011101e-15       2.272301659782e-13       3.049044303959e-17       2.081334782767e-10       2.102600961096e-11      -2.331121908481e-15 
   27       1.357774326700e-10       2.009558930039e-15       2.329801038571e-13       3.286230883619e-17       1.940808876551e-10       1.972152649324e-11       6.622810019528e-16 
   28       1.378204433618e-10       2.287356225187e-15       2.392873089312e-13       3.532315835902e-17       1.812840431752e-10       1.851890623103e-11      -9.554487031649e-17 
   29       1.398805473877e-10       2.591215065028e-15       2.458478707612e-13       3.787300654213e-17       1.696776118767e-10       1.741362432954e-11      -3.801686224348e-15 
   30       1.419719884304e-10       2.922379166126e-15       2.522261495442e-13       4.051190787147e-17       1.591368804728e-10       1.640674672448e-11      -9.227094634150e-15 
   31       1.440986238059e-10       3.281472639810e-15       2.579083693403e-13       4.323995629742e-17       1.494467516971e-10       1.549002598517e-11      -1.492878979806e-14 
   32       1.462633376306e-10       3.666382777244e-15       2.625223032473e-13       4.605730885701e-17       1.405572559465e-10       1.465418524766e-11      -2.002891240997e-14 
   33       1.484594237802e-10       4.073483367870e-15       2.656891598534e-13       4.896417935600e-17       1.324056578220e-10       1.388181780610e-11      -2.370028659904e-14 
   34       1.506740027633e-10       4.499624448461e-15       2.670412602915e-13       5.196083210772e-17       1.248780116798e-10       1.315160287541e-11      -2.518465954663e-14 
   35       1.529137060031e-10       4.947398370316e-15       2.664970686434e-13       5.504756341905e-17       1.179358341316e-10       1.246411074402e-11      -2.459153836783e-14 
   36       1.551863223517e-10       5.421782265988e-15       2.640842902305e-13       5.822472156896e-17       1.115234465361e-10       1.182416092110e-11      -2.238987860306e-14 
   37       1.574942548408e-10       5.927943807202e-15       2.598749406651e-13       6.149269174002e-17       1.055574102345e-10       1.123365522824e-11      -1.915244671021e-14 
   38       1.598379702091e-10       6.468207883364e-15       2.540005123908e-13       6.485181207595e-17       1.000223380822e-10       1.069140698595e-11      -1.535869965315e-14 
   39       1.622124575664e-10       7.044133914681e-15       2.466474321734e-13       6.830243522551e-17       9.490069811775e-11       1.019270738876e-11      -1.154194934110e-14 
   40       1.646054158101e-10       7.657329369691e-15       2.380573923906e-13       7.184495390937e-17       9.014366888711e-11       9.728956870259e-12      -8.351389759394e-15 
   41       1.670028935220e-10       8.309154266871e-15       2.284588256465e-13       7.547976231985e-17       8.568815703362e-11       9.290403947310e-12      -6.389572844334e-15 
   42       1.694100857361e-10       8.999716787479e-15       2.178263061266e-13       7.920711942685e-17       8.152107459485e-11       8.876211834606e-12      -5.643972829967e-15 
   43       1.718361386620e-10       9.728552240856e-15       2.060485622350e-13       8.302724522071e-17       7.763139171971e-11       8.487124274999e-12      -5.882442546941e-15 
   44       1.742881457475e-10       1.049487214966e-14       1.929921415991e-13       8.694035746956e-17       7.399084833280e-11       8.122575032335e-12      -6.802519290379e-15 
   45       1.767708069374e-10       1.129784769931e-14       1.785115473973e-13       9.094663442237e-17       7.056405567716e-11       7.781109758844e-12      -8.072605229557e-15 
   46       1.792858962130e-10       1.213760701326e-14       1.624869078190e-13       9.504609064838e-17       6.734563500943e-11       7.462068286094e-12      -9.480840428313e-15 
   47       1.818321936453e-10       1.301450290854e-14       1.447949358400e-13       9.923866333718e-17       6.433184831351e-11       7.164213051318e-12      -1.082304877293e-14 
   48       1.844052957164e-10       1.392883389264e-14       1.252973710696e-13       1.035242434450e-16       6.150939616425e-11       6.885157825492e-12      -1.185906296543e-14 
   49       1.869973512500e-10       1.488084214125e-14       1.038401050841e-13       1.079026731361e-16       5.885470662732e-11       6.621285514702e-12      -1.231083672340e-14 
   50       1.896002758034e-10       1.587072236088e-14       8.029573798979e-14       1.123737397046e-16       5.634103731419e-11       6.368795560736e-12      -1.195065690851e-14 
   51       1.922170360906e-10       1.689865590485e-14       5.470689543692e-14       1.169371613321e-16       5.396370395714e-11       6.127372011867e-12      -1.089838748899e-14 
   52       1.948529721278e-10       1.796478242205e-14       2.718030147518e-14       1.215925930415e-16       5.172047066555e-11       5.897369023049e-12      -9.401645912510e-15 
   53       1.975124884865e-10       1.906918830702e-14      -2.152111211484e-15       1.263396272181e-16       4.960400001697e-11       5.678739925729e-12      -7.755051368562e-15 
   54       2.001989539167e-10       2.021190518989e-14      -3.313203214840e-14       1.311777908861e-16       4.760150963486e-11       5.471008186829e-12      -6.302576985043e-15 
   55       2.029147431602e-10       2.139292559609e-14      -6.561327201589e-14       1.361065980543e-16       4.569867407088e-11       5.273492068764e-12      -5.357001405247e-15 
   56       2.056616045090e-10       2.261225794031e-14      -9.959113761101e-14       1.411257282252e-16       4.389325229391e-11       5.086110495476e-12      -4.929442581983e-15 
   57       2.084402077381e-10       2.386988254921e-14      -1.351031485343e-13       1.462348874600e-16       4.218424403081e-11       4.908726513198e-12      -4.936754428484e-15 
   58       2.112499171408e-10       2.516573486578e-14      -1.721925531189e-13       1.514337566264e-16       4.056776692037e-11       4.740892389606e-12      -5.277682098937e-15 
   59       2.140886966916e-10       2.649970460824e-14      -2.109087047847e-13       1.567219908204e-16       3.903687849257e-11       4.581830457263e-12      -5.831984290747e-15 
   60       2.169530152090e-10       2.787163492891e-14      -2.513074383922e-13       1.620992187874e-16       3.758139814778e-11       4.430413957045e-12      -6.459555546797e-15 
   61       2.198393356094e-10       2.928126583791e-14      -2.934396074010e-13       1.675651213645e-16       3.619073527161e-11       4.285471694634e-12      -7.029372626509e-15 
   62       2.227491878438e-10       3.072805153728e-14      -3.373128372740e-13       1.731196886915e-16       3.486351811577e-11       4.146825257658e-12      -7.515911721049e-15 
   63       2.256850715279e-10       3.221130040639e-14      -3.829218159918e-13       1.787630199697e-16       3.359982015788e-11       4.014451678944e-12      -7.922914118529e-15 
   64       2.286489286366e-10       3.373022456118e-14      -4.302593763949e-13       1.844952514257e-16       3.239826368197e-11       3.888171461167e-12      -8.255539094508e-15 
   65       2.316420989290e-10       3.528393724464e-14      -4.793164968892e-13       1.903165582395e-16       3.125593714006e-11       3.767639694632e-12      -8.520432509404e-15 
   66       2.346652753727e-10       3.687145021725e-14      -5.300823021512e-13       1.962271564740e-16       3.016831251384e-11       3.652337175050e-12      -8.725795405906e-15 
   67       2.377184595683e-10       3.849167114739e-14      -5.825440638334e-13       2.022273050026e-16       2.912916267622e-11       3.541561521321e-12      -8.881452606390e-15 
   68       2.408014284585e-10       4.014352174411e-14      -6.366871459395e-13       2.083172955300e-16       2.813222516385e-11       3.434624551145e-12      -8.997832676902e-15 
   69       2.439153439051e-10       4.182632578445e-14      -6.924948265231e-13       2.144974159926e-16       2.717676969141e-11       3.331510703558e-12      -9.082514475252e-15 
   70       2.470613906762e-10       4.353949538396e-14      -7.499484409614e-13       2.207679831725e-16       2.626301549045e-11       3.232336686717e-12      -9.143100858857e-15 
   71       2.502402630845e-10       4.528241768101e-14      -8.090274333913e-13       2.271293555449e-16       2.539044742217e-11       3.137153482039e-12      -9.188285428139e-15 
   72       2.534521334884e-10       4.705445531527e-14      -8.697093559997e-13       2.335819349012e-16       2.455777800428e-11       3.045942737111e-12      -9.227893281656e-15 
   73       2.566966207930e-10       4.885494690615e-14      -9.319698683134e-13       2.401261679742e-16       2.376290943787e-11       2.958613158612e-12      -9.272921771224e-15 
   74       2.599727589511e-10       5.068320753134e-14      -9.957827364895e-13       2.467625480612e-16       2.300289563429e-11       2.874996905222e-12      -9.335581257043e-15 
   75       2.632789654639e-10       5.253852920524e-14      -1.061119832606e-12       2.534916166483e-16       2.227390424195e-11       2.794845980541e-12      -9.429335862823e-15 
   76       2.666136854340e-10       5.442002157106e-14      -1.127948233914e-12       2.603138657808e-16       2.157216836260e-11       2.717898081799e-12      -9.565003901297e-15 
   77       2.699775289430e-10       5.632609938083e-14      -1.196220911488e-12       2.672294210305e-16       2.089712600194e-11       2.644095982430e-12      -9.738148097429e-15 
   78       2.733714680183e-10       5.825490198999e-14      -1.265884334427e-12       2.742383033974e-16       2.024878678324e-11       2.573401787489e-12      -9.939449272152e-15 
   79       2.767961782977e-10       6.020444209974e-14      -1.336881160057e-12       2.813405230308e-16       1.962677565340e-11       2.505728879378e-12      -1.015840328167e-14 
   80       2.802520213833e-10       6.217260295893e-14      -1.409150173749e-12       2.885360788173e-16       1.903031520420e-11       2.440939735002e-12      -1.038328097294e-14 
   81       2.837390271948e-10       6.415713556607e-14      -1.482626228746e-12       2.958249579700e-16       1.845820799354e-11       2.378843742939e-12      -1.060108813913e-14 
   82       2.872568763235e-10       6.615565587120e-14      -1.557240185981e-12       3.032071356169e-16       1.790881886665e-11       2.319195020594e-12      -1.079752547511e-14 
   83       2.908048823858e-10       6.816564197783e-14      -1.632918853904e-12       3.106825743899e-16       1.738005727739e-11       2.261690231370e-12      -1.095694853292e-14 
   84       2.943823588563e-10       7.018468330981e-14      -1.709593339394e-12       3.182512393789e-16       1.686988563571e-11       2.206039983640e-12      -1.106561433596e-14 
   85       2.979898280933e-10       7.221128170132e-14      -1.787225822961e-12       3.259131467441e-16       1.637797990328e-11       2.152201408939e-12      -1.112212734080e-14 
   86       3.016279813224e-10       7.424417859795e-14      -1.865787132616e-12       3.336683224458e-16       1.590431315629e-11       2.100180317453e-12      -1.112865982655e-14 
   87       3.052973009583e-10       7.628211631503e-14      -1.945248807418e-12       3.415167874450e-16       1.544864532801e-11       2.049960112103e-12      -1.108783417522e-14 
   88       3.089980494198e-10       7.832383947430e-14      -2.025583178662e-12       3.494585575502e-16       1.501051437085e-11       2.001500842371e-12      -1.100273806515e-14 
   89       3.127302579459e-10       8.036809644048e-14      -2.106763451066e-12       3.574936432645e-16       1.458922741833e-11       1.954738258137e-12      -1.087693966447e-14 
   90       3.164937154107e-10       8.241364075795e-14      -2.188763783955e-12       3.656220496320e-16       1.418385194714e-11       1.909582863508e-12      -1.071450282454e-14 
   91       3.202879571397e-10       8.445923258739e-14      -2.271559372448e-12       3.738437760858e-16       1.379320693911e-11       1.865918970647e-12      -1.052000227337e-14 
   92       3.241122537245e-10       8.650364014239e-14      -2.355126528640e-12       3.821588162939e-16       1.341585404330e-11       1.823603753612e-12      -1.029853880904e-14 
   93       3.279658695604e-10       8.854553118063e-14      -2.439434682825e-12       3.905672755242e-16       1.305043902996e-11       1.782503201506e-12      -1.005526629109e-14 
   94       3.318489072296e-10       9.058312568884e-14      -2.524420834679e-12       3.990697432606e-16       1.269679409385e-11       1.742608218564e-12      -9.793858235911e-15 
   95       3.357615700252e-10       9.261449337472e-14      -2.610011391757e-12       4.076669766059e-16       1.235498576835e-11       1.703934317409e-12      -9.517837615212e-15 
   96       3.397038961631e-10       9.463765888655e-14      -2.696129877750e-12       4.163597891988e-16       1.202497542970e-11       1.666485841808e-12      -9.231052887207e-15 
   97       3.436757513005e-10       9.665060174057e-14      -2.782696902761e-12       4.251490526737e-16       1.170661526748e-11       1.630255527020e-12      -8.937686488586e-15 
   98       3.476768210531e-10       9.865125624841e-14      -2.869630133576e-12       4.340356981210e-16       1.139964425500e-11       1.595224060133e-12      -8.642263326482e-15 
   99       3.517066035136e-10       1.006375114446e-13      -2.956844263938e-12       4.430207175470e-16       1.110368411971e-11       1.561359640411e-12      -8.349659270430e-15 
  100       3.557644017695e-10       1.026072110137e-13      -3.044250984820e-12       4.521051653341e-16       1.081823531366e-11       1.528617539633e-12      -8.065109644343e-15 
  101       3.598493164210e-10       1.045581532184e-13      -3.131758954699e-12       4.612901597013e-16       1.054267298387e-11       1.496939662439e-12      -7.794217718472e-15 
  102       3.639602380987e-10       1.064880908261e-13      -3.219273769828e-12       4.705768841635e-16       1.027624294277e-11       1.466254106670e-12      -7.542963201376e-15 
  103       3.680958399822e-10       1.083947310370e-13      -3.306697934508e-12       4.799665889923e-16       1.001805763865e-11       1.436474723714e-12      -7.317710731886e-15 
  104       3.722548606435e-10       1.102758440305e-13      -3.393937355388e-12       4.894604606931e-16       9.767297474656e-12       1.407520659350e-12      -7.123743123075e-15 
  105       3.764370122104e-10       1.121296054611e-13      -3.480921887504e-12       4.990592072118e-16       9.523854417165e-12       1.379378929541e-12      -6.960617148997e-15 
  106       3.806421815052e-10       1.139543003089e-13      -3.567587521213e-12       5.087634191564e-16       9.287768221999e-12       1.352049517425e-12      -6.826193303313e-15 
  107       3.848701464339e-10       1.157482194993e-13      -3.653870147471e-12       5.185736967867e-16       9.059027097983e-12       1.325525930219e-12      -6.718047398010e-15 
