# dimensionless total lensed [l(l+1)/2pi] C_l's
# for l=2 to 2500, i.e. number of multipoles equal to 2499
#
# -> if you prefer output in CAMB/HealPix/LensPix units/order, set 'format' to 'camb' in input file
# -> if you don't want to see such a header, set 'headers' to 'no' in input file
# -> for CMB lensing (phi), these are C_l^phi-phi for the lensing potential.
#    Remember the conversion factors:
#    C_l^dd (deflection) = l(l+1) C_l^phi-phi
#    C_l^gg (shear/convergence) = 1/4 (l(l+1))^2 C_l^phi-phi
#
# 1:l     2:TT                     3:EE                     4:TE                     5:BB                     6:phiphi                 7:TPhi                   8:Ephi               
    2       1.495442799712e-10       7.309279994276e-15       4.815171147125e-13       2.538223132669e-19       8.603320134444e-09       4.849502408875e-10      -2.515798305356e-12 
    3       1.409375747842e-10       1.238842439289e-14       6.068719460095e-13       5.078772759706e-19       5.391846720445e-09       3.465160923978e-10      -2.211468924099e-12 
    4       1.324639076114e-10       1.446597333000e-14       6.277975856118e-13       8.469709245964e-19       3.761740323523e-09       2.636064801926e-10      -1.764096536488e-12 
    5       1.257529116097e-10       1.337980659365e-14       5.879550138162e-13       1.271390950565e-18       2.810397467441e-09       2.090630638032e-10      -1.309522410803e-12 
    6       1.208087858627e-10       1.032488897112e-14       5.173987886221e-13       1.781478347614e-18       2.196043534905e-09       1.706669380765e-10      -8.948478071819e-13 
    7       1.173342609802e-10       6.843978014414e-15       4.365330640776e-13       2.377616096806e-18       1.770939783531e-09       1.423251684699e-10      -5.443912783034e-13 
    8       1.150094685914e-10       4.045434429654e-15       3.576614965600e-13       3.060216628785e-18       1.462527043235e-09       1.206730550862e-10      -2.689406562961e-13 
    9       1.135900555033e-10       2.340187030658e-15       2.880577322983e-13       3.829708559214e-18       1.231155172807e-09       1.036922829443e-10      -7.010757396520e-14 
   10       1.128613763608e-10       1.576340272596e-15       2.317780280571e-13       4.686523220546e-18       1.052826103344e-09       9.012418250902e-11       5.744859109989e-14 
   11       1.126831659959e-10       1.351537339192e-15       1.905546673316e-13       5.631081519364e-18       8.850996080340e-10       7.935087728169e-11       1.233241520142e-13 
   12       1.129467935739e-10       1.294976740220e-15       1.640598909454e-13       6.663781632952e-18       7.733641926230e-10       7.014287103605e-11       1.421542105660e-13 
   13       1.135322074514e-10       1.208460571091e-15       1.505250137391e-13       7.784988022459e-18       6.816493900256e-10       6.261755116329e-11       1.277268300733e-13 
   14       1.143409370150e-10       1.063786919836e-15       1.473981273877e-13       8.995022184207e-18       6.053446276463e-10       5.609118980953e-11       9.279011347246e-14 
   15       1.153793823316e-10       9.208353631497e-16       1.516646654860e-13       1.029415548784e-17       5.411203821809e-10       5.063936220712e-11       4.958890828717e-14 
   16       1.166086545418e-10       8.410804332924e-16       1.602809956370e-13       1.168260436301e-17       4.865184694598e-10       4.601906090265e-11       7.229796819560e-15 
   17       1.179457126687e-10       8.419360233171e-16       1.707677618700e-13       1.316052799851e-17       4.396803852628e-10       4.203019954690e-11      -2.793143480662e-14 
   18       1.193946243226e-10       8.958972293556e-16       1.812583280064e-13       1.472802738360e-17       3.990278769827e-10       3.848719623285e-11      -5.233654290541e-14 
   19       1.209633210656e-10       9.702809216348e-16       1.907729995842e-13       1.638515425637e-17       3.639184973075e-10       3.536064254748e-11      -6.510493254151e-14 
   20       1.225959222351e-10       1.031607981124e-15       1.985684983126e-13       1.813190282977e-17       3.329957975529e-10       3.259775235883e-11      -6.707205728278e-14 
   21       1.243043454528e-10       1.082805524813e-15       2.047243642279e-13       1.996823510210e-17       3.057739154457e-10       3.015428258504e-11      -6.038739677655e-14 
   22       1.260882860006e-10       1.141986394614e-15       2.096933474145e-13       2.189407096943e-17       2.816023965172e-10       2.794878131767e-11      -4.841013515327e-14 
   23       1.279369548732e-10       1.228546320571e-15       2.139232920737e-13       2.390931830768e-17       2.601491975802e-10       2.595023404225e-11      -3.407846691283e-14 
   24       1.298182734781e-10       1.361084273923e-15       2.179345010629e-13       2.601386303866e-17       2.409184360604e-10       2.412517982562e-11      -2.047678553450e-14 
   25       1.317491079193e-10       1.540009888988e-15       2.222216941469e-13       2.820760419908e-17       2.236838653456e-10       2.248297516074e-11      -9.446750025480e-15 
   26       1.337417781140e-10       1.758307047390e-15       2.272301604926e-13       3.049044178392e-17       2.081334728902e-10       2.102600941394e-11      -2.331123746483e-15 
   27       1.357774326227e-10       2.009558945071e-15       2.329800875545e-13       3.286230747663e-17       1.940808825721e-10       1.972152653241e-11       6.622684864479e-16 
   28       1.378204432926e-10       2.287356254071e-15       2.392872994103e-13       3.532315689043e-17       1.812840383734e-10       1.851890625749e-11      -9.556297244833e-17 
   29       1.398805472387e-10       2.591215133133e-15       2.458478803220e-13       3.787300495937e-17       1.696776073344e-10       1.741362413544e-11      -3.801704994480e-15 
   30       1.419719882246e-10       2.922379266209e-15       2.522261742866e-13       4.051190616949e-17       1.591368761703e-10       1.640674630322e-11      -9.227111266343e-15 
   31       1.440986236402e-10       3.281472733972e-15       2.579083901181e-13       4.323995447128e-17       1.494467476185e-10       1.549002553007e-11      -1.492880379740e-14 
   32       1.462633375639e-10       3.666382839058e-15       2.625223064514e-13       4.605730690193e-17       1.405572520763e-10       1.465418493213e-11      -2.002892379206e-14 
   33       1.484594237858e-10       4.073483399895e-15       2.656891460454e-13       4.896417726738e-17       1.324056541459e-10       1.388181769901e-11      -2.370029536065e-14 
   34       1.506740027344e-10       4.499624480191e-15       2.670412435775e-13       5.196082988121e-17       1.248780081852e-10       1.315160293728e-11      -2.518466567927e-14 
   35       1.529137058554e-10       4.947398422205e-15       2.664970606867e-13       5.504756105052e-17       1.179358308067e-10       1.246411091608e-11      -2.459154196827e-14 
   36       1.551863220636e-10       5.421782335273e-15       2.640842941751e-13       5.822471905455e-17       1.115234433698e-10       1.182416115338e-11      -2.238987992191e-14 
   37       1.574942544538e-10       5.927943869218e-15       2.598749512040e-13       6.149268907612e-17       1.055574072175e-10       1.123365548206e-11      -1.915244616202e-14 
   38       1.598379697745e-10       6.468207916688e-15       2.540005235702e-13       6.485180925917e-17       1.000223352050e-10       1.069140723133e-11      -1.535869777729e-14 
   39       1.622124571284e-10       7.044133910309e-15       2.466474399668e-13       6.830243225263e-17       9.490069537141e-11       1.019270760561e-11      -1.154194679654e-14 
   40       1.646054154027e-10       7.657329334093e-15       2.380573952503e-13       7.184495077740e-17       9.014366626340e-11       9.728957051187e-12      -8.351387332791e-15 
   41       1.670028931669e-10       8.309154220616e-15       2.284588244847e-13       7.547975902596e-17       8.568815452567e-11       9.290404097967e-12      -6.389571388456e-15 
   42       1.694100854410e-10       8.999716748392e-15       2.178263022727e-13       7.920711596828e-17       8.152107219598e-11       8.876211965481e-12      -5.643972965734e-15 
   43       1.718361384187e-10       9.728552217941e-15       2.060485568203e-13       8.302724159469e-17       7.763138942344e-11       8.487124399301e-12      -5.882444525058e-15 
   44       1.742881455286e-10       1.049487214109e-14       1.929921354884e-13       8.694035367331e-17       7.399084613324e-11       8.122575166243e-12      -6.802522911433e-15 
   45       1.767708066998e-10       1.129784769340e-14       1.785115411692e-13       9.094663045302e-17       7.056405356925e-11       7.781109920331e-12      -8.072609865988e-15 
   46       1.792858959255e-10       1.213760699967e-14       1.624869019216e-13       9.504608650291e-17       6.734563298817e-11       7.462068488943e-12      -9.480845399343e-15 
   47       1.818321932985e-10       1.301450288212e-14       1.447949306163e-13       9.923865901234e-17       6.433184637396e-11       7.164213302523e-12      -1.082305346407e-14 
   48       1.844052953273e-10       1.392883385450e-14       1.252973667318e-13       1.035242389373e-16       6.150939430176e-11       6.885158123893e-12      -1.185906685200e-14 
   49       1.869973508665e-10       1.488084209983e-14       1.038401016869e-13       1.079026684416e-16       5.885470483779e-11       6.621285849551e-12      -1.231083939550e-14 
   50       1.896002754978e-10       1.587072233099e-14       8.029573544087e-14       1.123737348190e-16       5.634103559418e-11       6.368795911968e-12      -1.195065808922e-14 
   51       1.922170359170e-10       1.689865589942e-14       5.470689363394e-14       1.169371562510e-16       5.396370230330e-11       6.127372356207e-12      -1.089838702689e-14 
   52       1.948529721060e-10       1.796478244927e-14       2.718030034795e-14       1.215925877598e-16       5.172046907455e-11       5.897369335737e-12      -9.401643795407e-15 
   53       1.975124885966e-10       1.906918836943e-14      -2.152111693998e-15       1.263396217306e-16       4.960399848568e-11       5.678740180615e-12      -7.755047745831e-15 
   54       2.001989540926e-10       2.021190528348e-14      -3.313203197066e-14       1.311777851869e-16       4.760150816045e-11       5.471008356477e-12      -6.302572191036e-15 
   55       2.029147432964e-10       2.139292571077e-14      -6.561327113926e-14       1.361065921372e-16       4.569867265089e-11       5.273492126507e-12      -5.356995940105e-15 
   56       2.056616045131e-10       2.261225806535e-14      -9.959113609950e-14       1.411257220838e-16       4.389325092591e-11       5.086110423899e-12      -4.929436949861e-15 
   57       2.084402075474e-10       2.386988267490e-14      -1.351031466028e-13       1.462348810877e-16       4.218424271236e-11       4.908726307803e-12      -4.936749084798e-15 
   58       2.112499167284e-10       2.516573498369e-14      -1.721925511533e-13       1.514337500165e-16       4.056776564913e-11       4.740892060763e-12      -5.277677437533e-15 
   59       2.140886960716e-10       2.649970471154e-14      -2.109087033628e-13       1.567219839660e-16       3.903687726636e-11       4.581830032236e-12      -5.831980630423e-15 
   60       2.169530144422e-10       2.787163501265e-14      -2.513074383055e-13       1.620992116815e-16       3.758139696466e-11       4.430413482116e-12      -6.459553117192e-15 
   61       2.198393347967e-10       2.928126589898e-14      -2.934396095935e-13       1.675651139999e-16       3.619073412989e-11       4.285471231965e-12      -7.029371563131e-15 
   62       2.227491870790e-10       3.072805157350e-14      -3.373128425106e-13       1.731196810614e-16       3.486351701378e-11       4.146824864857e-12      -7.515912091600e-15 
   63       2.256850708825e-10       3.221130041623e-14      -3.829218247371e-13       1.787630120674e-16       3.359981909394e-11       4.014451402176e-12      -7.922915923855e-15 
   64       2.286489281558e-10       3.373022454391e-14      -4.302593887691e-13       1.844952432446e-16       3.239826265441e-11       3.888171333184e-12      -8.255542260052e-15 
   65       2.316420986280e-10       3.528393720040e-14      -4.793165126224e-13       1.903165497737e-16       3.125593614729e-11       3.767639732710e-12      -8.520436876336e-15 
   66       2.346652752324e-10       3.687145014716e-14      -5.300823205351e-13       1.962271477178e-16       3.016831155435e-11       3.652337378852e-12      -8.725800721920e-15 
   67       2.377184595316e-10       3.849167105367e-14      -5.825440836718e-13       2.022272959507e-16       2.912916174868e-11       3.541561870667e-12      -8.881458516165e-15 
   68       2.408014284355e-10       4.014352162991e-14      -6.366871656280e-13       2.083172861776e-16       2.813222426706e-11       3.434625008048e-12      -8.997838740704e-15 
   69       2.439153438117e-10       4.182632565275e-14      -6.924948445496e-13       2.144974063352e-16       2.717676882420e-11       3.331511228249e-12      -9.082520279296e-15 
   70       2.470613904459e-10       4.353949523723e-14      -7.499484560683e-13       2.207679732058e-16       2.626301465162e-11       3.232337242375e-12      -9.143106051988e-15 
   71       2.502402626709e-10       4.528241752113e-14      -8.090274446159e-13       2.271293452646e-16       2.539044661053e-11       3.137154035453e-12      -9.188289732090e-15 
   72       2.534521328684e-10       4.705445514342e-14      -8.697093627156e-13       2.335819243036e-16       2.455777721867e-11       3.045943259374e-12      -9.227896501699e-15 
   73       2.566966199694e-10       4.885494672274e-14      -9.319698702739e-13       2.401261570555e-16       2.376290867720e-11       2.958613625835e-12      -9.272923807218e-15 
   74       2.599727579554e-10       5.068320733589e-14      -9.957827338725e-13       2.467625368180e-16       2.300289489751e-11       2.874997299280e-12      -9.335582114884e-15 
   75       2.632789643596e-10       5.253852899632e-14      -1.061119826060e-12       2.534916050775e-16       2.227390352815e-11       2.794846289845e-12      -9.429335666286e-15 
   76       2.666136843111e-10       5.442002134645e-14      -1.127948224497e-12       2.603138538795e-16       2.157216767095e-11       2.717898300983e-12      -9.565002877527e-15 
   77       2.699775278854e-10       5.632609913881e-14      -1.196220900254e-12       2.672294087955e-16       2.089712533163e-11       2.644096108491e-12      -9.738146476936e-15 
   78       2.733714670935e-10       5.825490172970e-14      -1.265884322302e-12       2.742382908254e-16       2.024878613347e-11       2.573401818870e-12      -9.939447259365e-15 
   79       2.767961775549e-10       6.020444182127e-14      -1.336881147818e-12       2.813405101178e-16       1.962677502336e-11       2.505728816118e-12      -1.015840105070e-14 
   80       2.802520208508e-10       6.217260266346e-14      -1.409150162007e-12       2.885360655590e-16       1.903031459310e-11       2.440939578883e-12      -1.038327866321e-14 
   81       2.837390268779e-10       6.415713525593e-14      -1.482626217919e-12       2.958249443616e-16       1.845820740064e-11       2.378843497645e-12      -1.060108585082e-14 
   82       2.872568762020e-10       6.615565555000e-14      -1.557240176277e-12       3.032071216530e-16       1.790881829125e-11       2.319194691870e-12      -1.079752326451e-14 
   83       2.908048824116e-10       6.816564165058e-14      -1.632918845297e-12       3.106825600646e-16       1.738005671885e-11       2.261689827184e-12      -1.095694640755e-14 
   84       2.943823589571e-10       7.018468298264e-14      -1.709593331647e-12       3.182512246856e-16       1.686988509347e-11       2.206039514059e-12      -1.106561226068e-14 
   85       2.979898281976e-10       7.221128138008e-14      -1.787225815815e-12       3.259131316757e-16       1.637797937676e-11       2.152200885055e-12      -1.112212527905e-14 
   86       3.016279813665e-10       7.424417828778e-14      -1.865787125834e-12       3.336683069953e-16       1.590431264493e-11       2.100179751108e-12      -1.112865775196e-14 
   87       3.052973008871e-10       7.628211602028e-14      -1.945248800795e-12       3.415167716049e-16       1.544864483125e-11       2.049959515895e-12      -1.108783207280e-14 
   88       3.089980491884e-10       7.832383919839e-14      -2.025583172028e-12       3.494585413127e-16       1.501051388814e-11       2.001500229660e-12      -1.100273593244e-14 
   89       3.127302575203e-10       8.036809618584e-14      -2.106763444287e-12       3.574936266212e-16       1.458922694915e-11       1.954737643047e-12      -1.087693751279e-14 
   90       3.164937147697e-10       8.241364052591e-14      -2.188763776940e-12       3.656220325746e-16       1.418385149098e-11       1.909582260932e-12      -1.071450068019e-14 
   91       3.202879562752e-10       8.445923237805e-14      -2.271559365152e-12       3.738437586053e-16       1.379320649553e-11       1.865918396256e-12      -1.052000017893e-14 
   92       3.241122526436e-10       8.650363995453e-14      -2.355126521070e-12       3.821587983810e-16       1.341585361187e-11       1.823603223851e-12      -1.029853682471e-14 
   93       3.279658682830e-10       8.854553101188e-14      -2.439434675033e-12       3.905672571693e-16       1.305043861030e-11       1.782502733051e-12      -1.005526449090e-14 
   94       3.318489057777e-10       9.058312553666e-14      -2.524420826725e-12       3.990697244542e-16       1.269679368561e-11       1.742607826026e-12      -9.793856687805e-15 
   95       3.357615684197e-10       9.261449323674e-14      -2.610011383697e-12       4.076669573390e-16       1.235498537114e-11       1.703934012524e-12      -9.517836374889e-15 
   96       3.397038944235e-10       9.463765876055e-14      -2.696129869639e-12       4.163597694627e-16       1.202497504316e-11       1.666485633142e-12      -9.231051996851e-15 
   97       3.436757494447e-10       9.665060162452e-14      -2.782696894649e-12       4.251490324601e-16       1.170661489124e-11       1.630255419667e-12      -8.937685975550e-15 
   98       3.476768190973e-10       9.865125614051e-14      -2.869630125511e-12       4.340356774221e-16       1.139964388870e-11       1.595224055408e-12      -8.642263201932e-15 
   99       3.517066014720e-10       1.006375113432e-13      -2.956844255962e-12       4.430206963554e-16       1.110368376300e-11       1.561359735530e-12      -8.349659527966e-15 
  100       3.557643996540e-10       1.026072109177e-13      -3.044250976972e-12       4.521051436433e-16       1.081823496620e-11       1.528617727391e-12      -8.065110258572e-15 
  101       3.598493142410e-10       1.045581531266e-13      -3.131758947011e-12       4.612901375050e-16       1.054267264535e-11       1.496939930872e-12      -7.794218643554e-15 
  102       3.639602358611e-10       1.064880907380e-13      -3.219273762326e-12       4.705768614564e-16       1.027624261291e-11       1.466254438719e-12      -7.542964369529e-15 
  103       3.680958376906e-10       1.083947309522e-13      -3.306697927212e-12       4.799665657696e-16       1.001805731718e-11       1.436475096871e-12      -7.317712051863e-15 
  104       3.722548582992e-10       1.102758439490e-13      -3.393937348310e-12       4.894604369508e-16       9.767297161331e-12       1.407521046753e-12      -7.123744484922e-15 
  105       3.764370098138e-10       1.121296053829e-13      -3.480921880643e-12       4.990591829456e-16       9.523854111756e-12       1.379379305642e-12      -6.960618448735e-15 
  106       3.806421790567e-10       1.139543002336e-13      -3.567587514552e-12       5.087633943619e-16       9.287767924271e-12       1.352049859685e-12      -6.826194450336e-15 
  107       3.848701439339e-10       1.157482194266e-13      -3.653870140976e-12       5.185736714590e-16       9.059026807699e-12       1.325526219421e-12      -6.718048316434e-15 
