# dimensionless total [l(l+1)/2pi] C_l's
# for l=2 to 3000, i.e. number of multipoles equal to 2999
#
# -> if you prefer output in CAMB/HealPix/LensPix units/order, set 'format' to 'camb' in input file
# -> if you don't want to see such a header, set 'headers' to 'no' in input file
# -> for CMB lensing (phi), these are C_l^phi-phi for the lensing potential.
#    Remember the conversion factors:
#    C_l^dd (deflection) = l(l+1) C_l^phi-phi
#    C_l^gg (shear/convergence) = 1/4 (l(l+1))^2 C_l^phi-phi
#
# 1:l     2:TT                     3:EE                     4:TE                     5:BB                     6:phiphi                 7:TPhi                   8:Ephi               
    2       1.305241191750e-10       6.186331055930e-15       3.979659603074e-13       0.000000000000e+00       7.489877220199e-09       4.443380808164e-10      -2.139423196096e-12 
    3       1.235336330613e-10       9.701106681451e-15       4.896565478142e-13       0.000000000000e+00       4.643794221117e-09       3.151893119831e-10      -1.819815642209e-12 
    4       1.166758924903e-10       1.042654869856e-14       4.950133623110e-13       0.000000000000e+00       3.228928829297e-09       2.384095400906e-10      -1.383639781639e-12 
    5       1.113992881041e-10       8.805251663654e-15       4.523582361418e-13       0.000000000000e+00       2.405601620722e-09       1.880905780647e-10      -9.608792955233e-13 
    6       1.076766427367e-10       6.168349335695e-15       3.877873183032e-13       0.000000000000e+00       1.875358213821e-09       1.528841018951e-10      -5.954837415603e-13 
    7       1.052430415783e-10       3.736312179655e-15       3.187897321873e-13       0.000000000000e+00       1.509466450366e-09       1.270587527821e-10      -3.064732486835e-13 
    8       1.037748201573e-10       2.111202374517e-15       2.555268418524e-13       0.000000000000e+00       1.244017402620e-09       1.073850480685e-10      -9.814406202215e-14 
    9       1.030660563051e-10       1.303069204669e-15       2.033845957309e-13       0.000000000000e+00       1.044548228592e-09       9.200748732266e-11       3.474103177600e-14 
   10       1.029859813006e-10       1.013241018017e-15       1.645296611875e-13       0.000000000000e+00       8.904862311210e-10       7.981912688597e-11       1.037595634467e-13 
   11       1.033275626604e-10       9.220214715665e-16       1.390166105650e-13       0.000000000000e+00       7.521354198022e-10       7.031749760929e-11       1.234680643766e-13 
   12       1.040392349738e-10       8.424280887616e-16       1.253381170250e-13       0.000000000000e+00       6.559081652965e-10       6.220306193395e-11       1.110699041694e-13 
   13       1.050282262925e-10       7.306156938221e-16       1.209216402992e-13       0.000000000000e+00       5.769972850574e-10       5.531739952623e-11       8.027215545665e-14 
   14       1.062253370807e-10       6.190292013543e-16       1.228925260694e-13       0.000000000000e+00       5.114227413860e-10       4.963276096196e-11       4.336458791200e-14 
   15       1.076363658508e-10       5.462047145103e-16       1.285893741584e-13       0.000000000000e+00       4.563023186303e-10       4.488440517090e-11       8.888592576924e-15 
   16       1.091668225117e-10       5.229589898245e-16       1.358654573209e-13       0.000000000000e+00       4.094963353488e-10       4.070286522838e-11      -1.811146493269e-14 
   17       1.108683633690e-10       5.351918613012e-16       1.432288449346e-13       0.000000000000e+00       3.693941254177e-10       3.708129296528e-11      -3.515381599732e-14 
   18       1.126625416789e-10       5.614251629401e-16       1.497935218379e-13       0.000000000000e+00       3.346329382304e-10       3.389868922124e-11      -4.247526390711e-14 
   19       1.145512764868e-10       5.949537034490e-16       1.553909039218e-13       0.000000000000e+00       3.046474448113e-10       3.111804963127e-11      -4.169076454180e-14 
   20       1.165286352307e-10       6.345324907175e-16       1.601119737737e-13       0.000000000000e+00       2.782729146854e-10       2.867608657813e-11      -3.560483112963e-14 
   21       1.185916496094e-10       6.881748467733e-16       1.643204876035e-13       0.000000000000e+00       2.550867033873e-10       2.651807667091e-11      -2.669237070703e-14 
   22       1.207112243814e-10       7.667021569428e-16       1.685121388272e-13       0.000000000000e+00       2.345252982363e-10       2.456255858898e-11      -1.763659911578e-14 
   23       1.228951911486e-10       8.725589402714e-16       1.730017008411e-13       0.000000000000e+00       2.162997721076e-10       2.281512531702e-11      -9.964084196142e-15 
   24       1.251430271510e-10       1.004487414647e-15       1.780199331756e-13       0.000000000000e+00       1.999827777593e-10       2.128025849083e-11      -4.782023584693e-15 
   25       1.274527711122e-10       1.159934566866e-15       1.835992192688e-13       0.000000000000e+00       1.853780612546e-10       1.990789181916e-11      -2.328262222531e-15 
   26       1.298082443566e-10       1.335553957922e-15       1.896366107723e-13       0.000000000000e+00       1.722171436811e-10       1.862391530671e-11      -2.358491056741e-15 
   27       1.322068130959e-10       1.530451309991e-15       1.958470471822e-13       0.000000000000e+00       1.603392147024e-10       1.743681250593e-11      -4.103286959367e-15 
   28       1.346419545018e-10       1.744303475184e-15       2.018438447171e-13       0.000000000000e+00       1.495365554129e-10       1.637024879978e-11      -6.548030105764e-15 
   29       1.371223464505e-10       1.977043091731e-15       2.073262659719e-13       0.000000000000e+00       1.397515950315e-10       1.541948251501e-11      -9.145004942867e-15 
   30       1.396509670967e-10       2.228500941546e-15       2.119661527696e-13       0.000000000000e+00       1.308765324962e-10       1.455881047555e-11      -1.139569217739e-14 
   31       1.422212030469e-10       2.498563194336e-15       2.154254983788e-13       0.000000000000e+00       1.227271233143e-10       1.375477148476e-11      -1.279563436881e-14 
   32       1.448358961171e-10       2.788269619350e-15       2.175906943333e-13       0.000000000000e+00       1.152598201556e-10       1.300379426927e-11      -1.326156142569e-14 
   33       1.474929779927e-10       3.099141293627e-15       2.184261608966e-13       0.000000000000e+00       1.084207155547e-10       1.230718868799e-11      -1.286696625282e-14 
   34       1.501835604439e-10       3.432829047646e-15       2.179254522908e-13       0.000000000000e+00       1.021127238705e-10       1.166238336860e-11      -1.175311524101e-14 
   35       1.529069674541e-10       3.790821437017e-15       2.161456292206e-13       0.000000000000e+00       9.630247156667e-11       1.106836538662e-11      -1.018722519010e-14 
   36       1.556593070798e-10       4.174651132209e-15       2.131889981743e-13       0.000000000000e+00       9.094214027174e-11       1.052133396043e-11      -8.534359603534e-15 
   37       1.584334100946e-10       4.585788647233e-15       2.091645130578e-13       0.000000000000e+00       8.596057952825e-11       1.001486005795e-11      -7.162859129349e-15 
   38       1.612351606739e-10       5.024987581637e-15       2.040773152673e-13       0.000000000000e+00       8.134418941925e-11       9.546843113395e-12      -6.151392252397e-15 
   39       1.640715523156e-10       5.492718017440e-15       1.979041396142e-13       0.000000000000e+00       7.707769499934e-11       9.114307926841e-12      -5.487436450706e-15 
   40       1.669457357523e-10       5.989330829044e-15       1.906227579649e-13       0.000000000000e+00       7.311956771822e-11       8.711208533408e-12      -5.144234785894e-15 
   41       1.698577610275e-10       6.515129813261e-15       1.821984342410e-13       0.000000000000e+00       6.941633718085e-11       8.330388966741e-12      -5.076324815408e-15 
   42       1.728081862105e-10       7.070636962088e-15       1.725382510594e-13       0.000000000000e+00       6.595662223549e-11       7.970859547935e-12      -5.207168363176e-15 
   43       1.757948788857e-10       7.656399091844e-15       1.615217295191e-13       0.000000000000e+00       6.273084313294e-11       7.632450738619e-12      -5.435538872852e-15 
   44       1.788115560123e-10       8.272911596763e-15       1.490119659001e-13       0.000000000000e+00       5.971502004193e-11       7.313690403084e-12      -5.637118611056e-15 
   45       1.818506940498e-10       8.920629217250e-15       1.348842776107e-13       0.000000000000e+00       5.687923328498e-11       7.012490520163e-12      -5.695004166293e-15 
   46       1.849141742197e-10       9.600009342708e-15       1.191247765746e-13       0.000000000000e+00       5.421871515745e-11       6.728706135720e-12      -5.605359209672e-15 
   47       1.880051864024e-10       1.031147648673e-14       1.017595162901e-13       0.000000000000e+00       5.173010796381e-11       6.462158086580e-12      -5.400993885884e-15 
   48       1.911250444328e-10       1.105540741998e-14       8.282803908516e-14       0.000000000000e+00       4.940209190257e-11       6.211844497396e-12      -5.122658708409e-15 
   49       1.942730028066e-10       1.183212892732e-14       6.238405682513e-14       0.000000000000e+00       4.721479452525e-11       5.975878749887e-12      -4.819497318377e-15 
   50       1.974474634347e-10       1.264192373773e-14       4.047872811143e-14       0.000000000000e+00       4.514571899547e-11       5.752068996837e-12      -4.540955846709e-15 
   51       2.006504073130e-10       1.348505541544e-14       1.710355933907e-14       0.000000000000e+00       4.319079596379e-11       5.539986059953e-12      -4.308871595810e-15 
   52       2.038838489446e-10       1.436174634818e-14      -7.766818578294e-15       0.000000000000e+00       4.134802520007e-11       5.339349615523e-12      -4.138590767503e-15 
   53       2.071484363439e-10       1.527216835061e-14      -3.415873631141e-14       0.000000000000e+00       3.961117918524e-11       5.149404623286e-12      -4.046899206803e-15 
   54       2.104433331568e-10       1.621644080597e-14      -6.209962439637e-14       0.000000000000e+00       3.796951933743e-11       4.968889486010e-12      -4.052073118597e-15 
   55       2.137671218791e-10       1.719464914165e-14      -9.161590410672e-14       0.000000000000e+00       3.641103616262e-11       4.796427706571e-12      -4.167603707585e-15 
   56       2.171210463180e-10       1.820690988780e-14      -1.227257297165e-13       0.000000000000e+00       3.493376239631e-11       4.631889739318e-12      -4.381429351518e-15 
   57       2.205063681517e-10       1.925331852565e-14      -1.554446854695e-13       0.000000000000e+00       3.353677323682e-11       4.475313680820e-12      -4.671633088186e-15 
   58       2.239233400068e-10       2.033392952683e-14      -1.897879246376e-13       0.000000000000e+00       3.221676536325e-11       4.326496406664e-12      -5.012125183516e-15 
   59       2.273711273614e-10       2.144875528726e-14      -2.257702202401e-13       0.000000000000e+00       3.096791045734e-11       4.184978230925e-12      -5.372447377725e-15 
   60       2.308477304482e-10       2.259776506105e-14      -2.634060157636e-13       0.000000000000e+00       2.978170872534e-11       4.050027565652e-12      -5.717577131470e-15 
   61       2.343509737680e-10       2.378087864225e-14      -3.027073739094e-13       0.000000000000e+00       2.864932817328e-11       3.920860260662e-12      -6.015898398330e-15 
   62       2.378819108526e-10       2.499794816459e-14      -3.436771700600e-13       0.000000000000e+00       2.756956739007e-11       3.797389859464e-12      -6.265647489636e-15 
   63       2.414420486312e-10       2.624877030610e-14      -3.863144540628e-13       0.000000000000e+00       2.654242830263e-11       3.679619290699e-12      -6.474082914068e-15 
   64       2.450323039114e-10       2.753308997251e-14      -4.306164017283e-13       0.000000000000e+00       2.556672187202e-11       3.567413310094e-12      -6.649904769214e-15 
   65       2.486529591563e-10       2.885059906449e-14      -4.765782988552e-13       0.000000000000e+00       2.464000048646e-11       3.460490606164e-12      -6.803318105429e-15 
   66       2.523036182626e-10       3.020093524493e-14      -5.241935252562e-13       0.000000000000e+00       2.375849035422e-11       3.358415905922e-12      -6.946096289694e-15 
   67       2.559831623380e-10       3.158368070619e-14      -5.734535387838e-13       0.000000000000e+00       2.291702389659e-11       3.260592080587e-12      -7.091644369466e-15 
   68       2.596903977350e-10       3.299836378872e-14      -6.243476082573e-13       0.000000000000e+00       2.211040793533e-11       3.166423161714e-12      -7.251618570377e-15 
   69       2.634262514804e-10       3.444446697310e-14      -6.768619851136e-13       0.000000000000e+00       2.133800130332e-11       3.075859392399e-12      -7.424847740169e-15 
   70       2.671919432988e-10       3.592141830032e-14      -7.309805344430e-13       0.000000000000e+00       2.059994758781e-11       2.988948943587e-12      -7.606270613195e-15 
   71       2.709883066743e-10       3.742858752469e-14      -7.866849492410e-13       0.000000000000e+00       1.989579107240e-11       2.905673315466e-12      -7.790156785579e-15 
   72       2.748157623326e-10       3.896528495403e-14      -8.439547280124e-13       0.000000000000e+00       1.922444585107e-11       2.825943814282e-12      -7.970082000651e-15 
   73       2.786742917238e-10       4.053076028988e-14      -9.027671523742e-13       0.000000000000e+00       1.858416494218e-11       2.749598029157e-12      -8.138903434388e-15 
   74       2.825634105042e-10       4.212420146766e-14      -9.630972646601e-13       0.000000000000e+00       1.797250940254e-11       2.676396308906e-12      -8.288734980848e-15 
   75       2.864821420194e-10       4.374473349692e-14      -1.024917845523e-12       0.000000000000e+00       1.738631744141e-11       2.606018238856e-12      -8.410922537608e-15 
   76       2.904294958397e-10       4.539143638569e-14      -1.088200843565e-12       0.000000000000e+00       1.682248289585e-11       2.538145364910e-12      -8.498063842542e-15 
   77       2.944060627307e-10       4.706340525123e-14      -1.152922014703e-12       0.000000000000e+00       1.628052282036e-11       2.472734569413e-12      -8.550547845141e-15 
   78       2.984126637076e-10       4.875969911455e-14      -1.219057092052e-12       0.000000000000e+00       1.576042417134e-11       2.409788377392e-12      -8.571168460012e-15 
   79       3.024498548846e-10       5.047932203261e-14      -1.286580416217e-12       0.000000000000e+00       1.526186192459e-11       2.349271405599e-12      -8.563202737873e-15 
   80       3.065179113130e-10       5.222122232982e-14      -1.355464942667e-12       0.000000000000e+00       1.478418478590e-11       2.291108607895e-12      -8.530428076165e-15 
   81       3.106168108212e-10       5.398429182957e-14      -1.425682249117e-12       0.000000000000e+00       1.432640090177e-11       2.235183520642e-12      -8.477139429676e-15 
   82       3.147462178526e-10       5.576736508578e-14      -1.497202542904e-12       0.000000000000e+00       1.388716356998e-11       2.181336508086e-12      -8.408166521156e-15 
   83       3.189054673050e-10       5.756921861437e-14      -1.569994668366e-12       0.000000000000e+00       1.346475695024e-11       2.129363007749e-12      -8.328891051937e-15 
   84       3.230938677730e-10       5.938860513296e-14      -1.644025167242e-12       0.000000000000e+00       1.305750930799e-11       2.079063642912e-12      -8.244265139375e-15 
   85       3.273117044355e-10       6.122436448489e-14      -1.719255264721e-12       0.000000000000e+00       1.266514275915e-11       2.030407948770e-12      -8.155641965428e-15 
   86       3.315593735680e-10       6.307532978059e-14      -1.795643394950e-12       0.000000000000e+00       1.228762212596e-11       1.983394697811e-12      -8.063448828665e-15 
   87       3.358370672877e-10       6.494029384697e-14      -1.873146095179e-12       0.000000000000e+00       1.192474029942e-11       1.938001576091e-12      -7.968139620639e-15 
   88       3.401447627600e-10       6.681800904734e-14      -1.951717997218e-12       0.000000000000e+00       1.157611113533e-11       1.894184300340e-12      -7.870195250400e-15 
   89       3.444822114060e-10       6.870718710133e-14      -2.031311818907e-12       0.000000000000e+00       1.124116235036e-11       1.851875735063e-12      -7.770124069010e-15 
   90       3.488489281095e-10       7.060649890473e-14      -2.111878355576e-12       0.000000000000e+00       1.091912841814e-11       1.810985009646e-12      -7.668462294059e-15 
   91       3.532441804235e-10       7.251457434947e-14      -2.193366471507e-12       0.000000000000e+00       1.060904346532e-11       1.771396635455e-12      -7.565774434180e-15 
   92       3.576669777778e-10       7.443000214343e-14      -2.275723091398e-12       0.000000000000e+00       1.030973416763e-11       1.732969622944e-12      -7.462653713564e-15 
   93       3.621163765946e-10       7.635134445535e-14      -2.358894528870e-12       0.000000000000e+00       1.002009589520e-11       1.695572620042e-12      -7.359673853373e-15 
   94       3.665924715711e-10       7.827718376001e-14      -2.442830719094e-12       0.000000000000e+00       9.739984087252e-12       1.659197290322e-12      -7.257235198263e-15 
   95       3.710955342248e-10       8.020608273837e-14      -2.527481609926e-12       0.000000000000e+00       9.469444429577e-12       1.623860433878e-12      -7.155696124480e-15 
   96       3.756257038984e-10       8.213657010342e-14      -2.612795891276e-12       0.000000000000e+00       9.208438377835e-12       1.589569102174e-12      -7.055419380971e-15 
   97       3.801829813032e-10       8.406714062365e-14      -2.698721004915e-12       0.000000000000e+00       8.956839941746e-12       1.556320209607e-12      -6.956771846184e-15 
   98       3.847672220627e-10       8.599625514640e-14      -2.785203154301e-12       0.000000000000e+00       8.714432469281e-12       1.524100145071e-12      -6.860124284864e-15 
   99       3.893781302563e-10       8.792234062126e-14      -2.872187314386e-12       0.000000000000e+00       8.480905430845e-12       1.492884383515e-12      -6.765851104854e-15 
  100       3.940152519622e-10       8.984379012352e-14      -2.959617241439e-12       0.000000000000e+00       8.255851203460e-12       1.462637097507e-12      -6.674330113895e-15 
  101       3.986779688013e-10       9.175896287750e-14      -3.047435482860e-12       0.000000000000e+00       8.038761854956e-12       1.433310768795e-12      -6.585942276424e-15 
  102       4.033654914803e-10       9.366618427999e-14      -3.135583386995e-12       0.000000000000e+00       7.829025928154e-12       1.404845799870e-12      -6.501071470373e-15 
  103       4.080768533355e-10       9.556374592364e-14      -3.224001112954e-12       0.000000000000e+00       7.625925225054e-12       1.377170125523e-12      -6.420104243969e-15 
  104       4.128111188233e-10       9.744994958209e-14      -3.312628265525e-12       0.000000000000e+00       7.428796417796e-12       1.350216441638e-12      -6.343337911574e-15 
  105       4.175680549741e-10       9.932324588203e-14      -3.401405876444e-12       0.000000000000e+00       7.237547671157e-12       1.323977378778e-12      -6.270691225913e-15 
  106       4.223475390276e-10       1.011821144945e-13      -3.490274710316e-12       0.000000000000e+00       7.052206137910e-12       1.298457092280e-12      -6.201953986540e-15 
  107       4.271493475402e-10       1.030250223464e-13      -3.579174679894e-12       0.000000000000e+00       6.872757976447e-12       1.273654118092e-12      -6.136873975272e-15 
