# dimensionless total lensed [l(l+1)/2pi] C_l's
# for l=2 to 2500, i.e. number of multipoles equal to 2499
#
# -> if you prefer output in CAMB/HealPix/LensPix units/order, set 'format' to 'camb' in input file
# -> if you don't want to see such a header, set 'headers' to 'no' in input file
# -> for CMB lensing (phi), these are C_l^phi-phi for the lensing potential.
#    Remember the conversion factors:
#    C_l^dd (deflection) = l(l+1) C_l^phi-phi
#    C_l^gg (shear/convergence) = 1/4 (l(l+1))^2 C_l^phi-phi
#
# 1:l     2:TT                     3:EE                     4:TE                     5:BB                     6:phiphi                 7:TPhi                   8:Ephi               
    2       1.415317745453e-10       5.472130518769e-15       4.100967022968e-13       3.315776934350e-20       8.189442124272e-09       4.521600832481e-10      -2.145742078709e-12 
    3       1.340830846145e-10       8.120502093481e-15       4.863510225033e-13       6.645386634420e-20       5.007968398873e-09       3.211104717634e-10      -1.764992977194e-12 
    4       1.269123417138e-10       8.233931785289e-15       4.780140226418e-13       1.110598241290e-19       3.460685986779e-09       2.430365186346e-10      -1.293708316653e-12 
    5       1.215328437683e-10       6.512331073198e-15       4.266944595350e-13       1.671490602791e-19       2.562831746231e-09       1.915656599887e-10      -8.551488550733e-13 
    6       1.179037126968e-10       4.249218808984e-15       3.586081516491e-13       2.349292280830e-19       1.986391420271e-09       1.554166489941e-10      -4.902476800400e-13 
    7       1.157345663306e-10       2.423711818673e-15       2.904109637061e-13       3.146366715999e-19       1.591388699193e-09       1.289098476471e-10      -2.144270361697e-13 
    8       1.146581862927e-10       1.367874244200e-15       2.311221782860e-13       4.065302767293e-19       1.306699736622e-09       1.087680419199e-10      -2.804273097673e-14 
    9       1.144550336524e-10       9.280146645642e-16       1.849571264419e-13       5.108849580626e-19       1.093340304792e-09       9.299732496423e-11       7.833375748647e-14 
   10       1.149211272952e-10       7.886621270114e-16       1.530341542347e-13       6.279850336770e-19       9.287306489953e-10       8.042945812008e-11       1.203555250230e-13 
   11       1.159266209877e-10       7.144965424525e-16       1.343710968556e-13       7.581177418838e-19       7.945027611961e-10       7.112017001599e-11       1.164870390777e-13 
   12       1.174089798643e-10       6.230352506448e-16       1.265588583157e-13       9.015671451927e-19       6.913521782049e-10       6.273797952075e-11       8.581511089726e-14 
   13       1.192244640565e-10       5.331308832306e-16       1.266260409532e-13       1.058608647757e-18       6.068519378294e-10       5.581769029322e-11       4.426895171396e-14 
   14       1.212986034218e-10       4.825870536771e-16       1.317342262647e-13       1.229504324121e-18       5.366862890892e-10       4.980775131110e-11       3.857714155806e-15 
   15       1.236392947106e-10       4.812059521379e-16       1.395071131848e-13       1.414499220394e-18       4.777469542477e-10       4.477214014924e-11      -2.724847541942e-14 
   16       1.262666220476e-10       5.114055216711e-16       1.480970712011e-13       1.613818745560e-18       4.277378105511e-10       4.052404493691e-11      -4.556445172868e-14 
   17       1.290185846202e-10       5.517888870699e-16       1.564715139758e-13       1.827667222335e-18       3.849261967116e-10       3.686171125996e-11      -5.115746324950e-14 
   18       1.319652279777e-10       5.949875934776e-16       1.641445589757e-13       2.056227049062e-18       3.478485489738e-10       3.355818661279e-11      -4.681947375253e-14 
   19       1.351211024283e-10       6.496299836481e-16       1.711619087856e-13       2.299662406176e-18       3.158806363244e-10       3.061286940696e-11      -3.599682388499e-14 
   20       1.384005530122e-10       7.288972256556e-16       1.777800546865e-13       2.558115004006e-18       2.877858967453e-10       2.803679840904e-11      -2.312788237515e-14 
   21       1.418168102049e-10       8.378644830480e-16       1.843798821051e-13       2.831715201424e-18       2.631088029726e-10       2.579589705031e-11      -1.125300558443e-14 
   22       1.453811050062e-10       9.776005433735e-16       1.913750353869e-13       3.120576987478e-18       2.412421205159e-10       2.380170098888e-11      -2.996478877311e-15 
   23       1.490782772929e-10       1.144953341616e-15       1.988571665920e-13       3.424811031031e-18       2.218748900552e-10       2.201193090506e-11       8.053934040053e-16 
   24       1.528684158074e-10       1.335104882194e-15       2.067544952432e-13       3.744519616736e-18       2.045511205045e-10       2.038111692453e-11       2.306847583519e-16 
   25       1.567719165048e-10       1.548225493460e-15       2.148614033943e-13       4.079811506683e-18       1.890596378356e-10       1.891051372228e-11      -3.621115816283e-15 
   26       1.608095812393e-10       1.785635721446e-15       2.228483212767e-13       4.430795991721e-18       1.751128953965e-10       1.759970871117e-11      -9.029016853046e-15 
   27       1.649696649036e-10       2.046901362612e-15       2.302674939622e-13       4.797595478885e-18       1.625377989451e-10       1.642829146472e-11      -1.439111400715e-14 
   28       1.692223401289e-10       2.331059423463e-15       2.366211873309e-13       5.180341276835e-18       1.511120160689e-10       1.536150996748e-11      -1.816272583865e-14 
   29       1.735739706513e-10       2.638703598355e-15       2.416587795245e-13       5.579186762970e-18       1.407729115447e-10       1.438859616996e-11      -1.996544668890e-14 
   30       1.780314015759e-10       2.970928824640e-15       2.451937382605e-13       5.994299286769e-18       1.314053395842e-10       1.349611988509e-11      -1.983079163974e-14 
   31       1.825910086624e-10       3.329181986251e-15       2.470684997141e-13       6.425858803649e-18       1.228136038146e-10       1.266395871240e-11      -1.795170838511e-14 
   32       1.872546188015e-10       3.716271817926e-15       2.472988691681e-13       6.874063330415e-18       1.149503105695e-10       1.189173644267e-11      -1.490204914429e-14 
   33       1.920168647206e-10       4.135792301751e-15       2.459892804773e-13       7.339128122548e-18       1.077572219796e-10       1.118093417242e-11      -1.152631770954e-14 
   34       1.968663793968e-10       4.591241536367e-15       2.432726187581e-13       7.821281699434e-18       1.011307502956e-10       1.052872658519e-11      -8.719999210331e-15 
   35       2.018093581506e-10       5.083731523959e-15       2.392158777683e-13       8.320751483381e-18       9.503478019085e-11       9.932437410179e-12      -6.803078189246e-15 
   36       2.068526246392e-10       5.613460396621e-15       2.338852554272e-13       8.837775233759e-18       8.941825156179e-11       9.385775274913e-12      -5.933896493517e-15 
   37       2.119976391347e-10       6.180570880936e-15       2.273272759098e-13       9.372593111826e-18       8.420567581293e-11       8.879843437837e-12      -6.193683833252e-15 
   38       2.172438950632e-10       6.786116469206e-15       2.194134812409e-13       9.925403604956e-18       7.938199789028e-11       8.412264824321e-12      -7.312609799174e-15 
   39       2.225854253995e-10       7.431396650105e-15       2.099427711309e-13       1.049639373799e-17       7.493048728803e-11       7.980517201433e-12      -8.844679774841e-15 
   40       2.280090129079e-10       8.117695450405e-15       1.986800296465e-13       1.108575091434e-17       7.080697313957e-11       7.579172986567e-12      -1.023163740536e-14 
   41       2.335000342681e-10       8.846276041974e-15       1.853983510288e-13       1.169364394286e-17       6.695484205222e-11       7.201684215176e-12      -1.094086568387e-14 
   42       2.390639329434e-10       9.618367685352e-15       1.700277690754e-13       1.232015863882e-17       6.336162305346e-11       6.847031744021e-12      -1.095071368399e-14 
   43       2.447105794815e-10       1.043517087116e-14       1.525510793735e-13       1.296534129494e-17       6.001681830300e-11       6.514823667723e-12      -1.041081399597e-14 
   44       2.504481093025e-10       1.129785781433e-14       1.329642467849e-13       1.362921460543e-17       5.689495281133e-11       6.203343475810e-12      -9.513083936560e-15 
   45       2.562820666432e-10       1.220755260884e-14       1.112719411979e-13       1.431176301957e-17       5.396439437479e-11       5.910277551742e-12      -8.464912362832e-15 
   46       2.622130944770e-10       1.316527031364e-14       8.747073602324e-14       1.501288664006e-17       5.121974870623e-11       5.635411337301e-12      -7.392877019984e-15 
   47       2.682381473709e-10       1.417195554389e-14       6.156219847483e-14       1.573243133389e-17       4.865713451659e-11       5.378555642049e-12      -6.414778597945e-15 
   48       2.743507811158e-10       1.522849498557e-14       3.355814635021e-14       1.647019887091e-17       4.626442758848e-11       5.138722950318e-12      -5.667565381319e-15 
   49       2.805408781604e-10       1.633571397449e-14       3.481117672860e-15       1.722594485691e-17       4.402065256721e-11       4.914067615588e-12      -5.308302150791e-15 
   50       2.867983288309e-10       1.749444032016e-14      -2.865425542804e-14       1.799938284568e-17       4.190213821359e-11       4.702411068983e-12      -5.462143022078e-15 
   51       2.931258899684e-10       1.870572413777e-14      -6.290417500658e-14       1.879020278626e-17       3.990436388852e-11       4.503124260543e-12      -6.047353420014e-15 
   52       2.995293420197e-10       1.997067177363e-14      -9.934901837857e-14       1.959805401028e-17       3.802499172310e-11       4.315652807664e-12      -6.904467102765e-15 
   53       3.060137519979e-10       2.129038352517e-14      -1.380761540709e-13       2.042253775667e-17       3.625733839113e-11       4.138945130055e-12      -7.843642204958e-15 
   54       3.125833850714e-10       2.266595338434e-14      -1.791803708034e-13       2.126320539560e-17       3.459008518067e-11       3.971420174185e-12      -8.643136206737e-15 
   55       3.192413918143e-10       2.409840557733e-14      -2.227525855688e-13       2.211959156677e-17       3.301061889122e-11       3.811427496537e-12      -9.105230660925e-15 
   56       3.259889815173e-10       2.558848631014e-14      -2.688417001915e-13       2.299132730340e-17       3.151669062242e-11       3.658835296105e-12      -9.243768093313e-15 
   57       3.328258886513e-10       2.713681983878e-14      -3.174840205148e-13       2.387805189966e-17       3.010714544625e-11       3.513780350101e-12      -9.140532082990e-15 
   58       3.397504841759e-10       2.874396448044e-14      -3.687141200298e-13       2.477938005175e-17       2.877840010063e-11       3.376197411188e-12      -8.892577024663e-15 
   59       3.467596783886e-10       3.041040989449e-14      -4.225648121990e-13       2.569490144204e-17       2.752429452169e-11       3.245806114746e-12      -8.612941399981e-15 
   60       3.538488237733e-10       3.213657436341e-14      -4.790671227796e-13       2.662418032330e-17       2.633594337603e-11       3.122097886126e-12      -8.431361048846e-15 
   61       3.610133179457e-10       3.392289899430e-14      -5.382508993374e-13       2.756679580675e-17       2.520413266821e-11       3.004498612660e-12      -8.462673279270e-15 
   62       3.682540527182e-10       3.577016118323e-14      -6.001468622723e-13       2.852247423412e-17       2.412747405949e-11       2.892928947367e-12      -8.702128120113e-15 
   63       3.755730213060e-10       3.767922700653e-14      -6.647849671499e-13       2.949098591528e-17       2.310582574460e-11       2.787347110488e-12      -9.107737326684e-15 
   64       3.829716838064e-10       3.965096085815e-14      -7.321938008244e-13       3.047210790467e-17       2.213784251457e-11       2.687576855602e-12      -9.630204291990e-15 
   65       3.904509239902e-10       4.168622580584e-14      -8.024005739796e-13       3.146562487696e-17       2.122090804232e-11       2.593299953769e-12      -1.021261217280e-14 
   66       3.980110060939e-10       4.378588394730e-14      -8.754311136699e-13       3.247133000280e-17       2.035106716821e-11       2.504048677672e-12      -1.079011201568e-14 
   67       4.056515316102e-10       4.595079676638e-14      -9.513098558614e-13       3.348902582447e-17       1.952295818563e-11       2.419198285762e-12      -1.128961088311e-14 
   68       4.133719269704e-10       4.818164957776e-14      -1.030056366143e-12       3.451851149041e-17       1.873120018447e-11       2.338124311923e-12      -1.164619776869e-14 
   69       4.211731179198e-10       5.047838275763e-14      -1.111674099882e-12       3.555953949755e-17       1.797503287699e-11       2.260728243952e-12      -1.185698339436e-14 
   70       4.290561183521e-10       5.284064537569e-14      -1.196159340713e-12       3.661185171668e-17       1.725449959734e-11       2.187005348971e-12      -1.193765963394e-14 
   71       4.370215003384e-10       5.526795684105e-14      -1.283504376336e-12       3.767519277555e-17       1.656904547396e-11       2.116886050719e-12      -1.190684109843e-14 
   72       4.450693644963e-10       5.775970275941e-14      -1.373697402257e-12       3.874931058567e-17       1.591748692889e-11       2.050232628671e-12      -1.178618133855e-14 
   73       4.531993103598e-10       6.031513079017e-14      -1.466722425541e-12       3.983395686914e-17       1.529798117709e-11       1.986835917156e-12      -1.160048904722e-14 
   74       4.614104067477e-10       6.293334650363e-14      -1.562559168554e-12       4.092888768546e-17       1.470799572582e-11       1.926412004473e-12      -1.137784426207e-14 
   75       4.697011621337e-10       6.561330923814e-14      -1.661182972716e-12       4.203386395838e-17       1.414427787393e-11       1.868598932017e-12      -1.114971456797e-14 
   76       4.780700703566e-10       6.835408331588e-14      -1.762572111319e-12       4.314860126071e-17       1.360363541522e-11       1.813044166496e-12      -1.094433628484e-14 
   77       4.865174281389e-10       7.115565373554e-14      -1.866731480311e-12       4.427260743261e-17       1.308551052979e-11       1.759692728516e-12      -1.076520772835e-14 
   78       4.950437967081e-10       7.401825238949e-14      -1.973673072842e-12       4.540531617180e-17       1.258982202127e-11       1.708545852707e-12      -1.060886698710e-14 
   79       5.036494383142e-10       7.694211697683e-14      -2.083409008218e-12       4.654613464320e-17       1.211618210979e-11       1.659573459578e-12      -1.047125746377e-14 
   80       5.123342983962e-10       7.992749209679e-14      -2.195951587580e-12       4.769444296532e-17       1.166388256567e-11       1.612712716009e-12      -1.034770597072e-14 
   81       5.210979877495e-10       8.297463034234e-14      -2.311313349582e-12       4.884959369655e-17       1.123188084315e-11       1.567866595745e-12      -1.023290082552e-14 
   82       5.299397646932e-10       8.608379339360e-14      -2.429507126062e-12       5.001091132145e-17       1.081878621414e-11       1.524902439893e-12      -1.012086994660e-14 
   83       5.388585172368e-10       8.925525311138e-14      -2.550546097724e-12       5.117769173711e-17       1.042284590192e-11       1.483650517417e-12      -1.000495894875e-14 
   84       5.478531656425e-10       9.248911453472e-14      -2.674437714925e-12       5.234922826313e-17       1.004235369723e-11       1.443944016147e-12      -9.879394620390e-15 
   85       5.569239858516e-10       9.578474876347e-14      -2.801164180139e-12       5.352489575120e-17       9.676984011872e-12       1.405749786358e-12      -9.744321141525e-15 
   86       5.660714737784e-10       9.914126762740e-14      -2.930698816937e-12       5.470407954214e-17       9.326654588052e-12       1.369056733222e-12      -9.601562485200e-15 
   87       5.752959338137e-10       1.025576915514e-13      -3.063011870459e-12       5.588615011503e-17       8.991117013528e-12       1.333835581165e-12      -9.453115938641e-15 
   88       5.845974680570e-10       1.060329476555e-13      -3.198070459985e-12       5.707046301932e-17       8.669949955857e-12       1.300038130669e-12      -9.301156843894e-15 
   89       5.939759655492e-10       1.095658678557e-13      -3.335838531500e-12       5.825635880690e-17       8.362552396667e-12       1.267596515080e-12      -9.148043338475e-15 
   90       6.034310915054e-10       1.131551869637e-13      -3.476276810271e-12       5.944316296421e-17       8.068136865929e-12       1.236422457414e-12      -8.996321096020e-15 
   91       6.129622765472e-10       1.167995407874e-13      -3.619342753407e-12       6.063018584435e-17       7.785722676230e-12       1.206406527163e-12      -8.848728066927e-15 
   92       6.225687059353e-10       1.204974642313e-13      -3.764990502434e-12       6.181672259913e-17       7.514129157037e-12       1.177417397102e-12      -8.708199219010e-15 
   93       6.322495673799e-10       1.242475001915e-13      -3.913174738080e-12       6.300212570058e-17       7.252244334234e-12       1.149333180640e-12      -8.577318119241e-15 
   94       6.420048604929e-10       1.280485491021e-13      -4.063863010837e-12       6.418603512964e-17       6.999891888593e-12       1.122142449508e-12      -8.456567030561e-15 
   95       6.518346897359e-10       1.318995686929e-13      -4.217025185853e-12       6.536818284342e-17       6.757082685477e-12       1.095857105743e-12      -8.345821169875e-15 
   96       6.617390095689e-10       1.357994675049e-13      -4.372629712002e-12       6.654832418657e-17       6.523748002894e-12       1.070481356103e-12      -8.244875602352e-15 
   97       6.717176172317e-10       1.397471045117e-13      -4.530643628027e-12       6.772623881988e-17       6.299736546765e-12       1.046011409229e-12      -8.153442388950e-15 
   98       6.817701455264e-10       1.437412887405e-13      -4.691032568666e-12       6.890173164874e-17       6.084811466180e-12       1.022435172826e-12      -8.071147733949e-15 
   99       6.918960555996e-10       1.477807788931e-13      -4.853760770792e-12       7.007463375168e-17       5.878647368666e-12       9.997319508256e-13      -7.997529132472e-15 
  100       7.020946297239e-10       1.518642829674e-13      -5.018791079544e-12       7.124480330889e-17       5.680827335447e-12       9.778721405599e-13      -7.932032518011e-15 
  101       7.123649640801e-10       1.559904578783e-13      -5.186084954462e-12       7.241212653070e-17       5.490839936703e-12       9.568169299309e-13      -7.874009409960e-15 
  102       7.227059615395e-10       1.601579090788e-13      -5.355602475624e-12       7.357651858614e-17       5.308076246836e-12       9.365179945813e-13      -7.822714061131e-15 
  103       7.331163244457e-10       1.643651901813e-13      -5.527302349774e-12       7.473792453146e-17       5.131826859733e-12       9.169171950643e-13      -7.777300605289e-15 
  104       7.435948164495e-10       1.686108065071e-13      -5.701141354130e-12       7.589624481152e-17       4.961435831077e-12       8.979592988424e-13      -7.736922184578e-15 
  105       7.541411038433e-10       1.728932270969e-13      -5.877072569004e-12       7.705109830309e-17       4.796792617404e-12       8.796327557612e-13      -7.701049725969e-15 
  106       7.647550149512e-10       1.772108736236e-13      -6.055046916755e-12       7.820202884414e-17       4.637901335803e-12       8.619338918289e-13      -7.669191109504e-15 
  107       7.754362770156e-10       1.815621162781e-13      -6.235013702761e-12       7.934857790104e-17       4.484728526026e-12       8.448542184870e-13      -7.640791322848e-15 
