# dimensionless total lensed [l(l+1)/2pi] C_l's
# for l=2 to 2500, i.e. number of multipoles equal to 2499
#
# -> if you prefer output in CAMB/HealPix/LensPix units/order, set 'format' to 'camb' in input file
# -> if you don't want to see such a header, set 'headers' to 'no' in input file
# -> for CMB lensing (phi), these are C_l^phi-phi for the lensing potential.
#    Remember the conversion factors:
#    C_l^dd (deflection) = l(l+1) C_l^phi-phi
#    C_l^gg (shear/convergence) = 1/4 (l(l+1))^2 C_l^phi-phi
#
# 1:l     2:TT                     3:EE                     4:TE                     5:BB                     6:phiphi                 7:TPhi                   8:Ephi               
    2       1.413391377834e-10       5.472267004076e-15       4.100992664708e-13       2.901441839772e-19       8.556606924276e-09       4.566649636272e-10      -2.150238776749e-12 
    3       1.336649189577e-10       8.120814402333e-15       4.863579943887e-13       5.804404876678e-19       5.268437172213e-09       3.258325267606e-10      -1.768813531618e-12 
    4       1.261837453783e-10       8.234739536895e-15       4.780304969672e-13       9.677345131324e-19       3.675859835151e-09       2.480121921589e-10      -1.295889460639e-12 
    5       1.204067770399e-10       6.513883919909e-15       4.267278565035e-13       1.452217154318e-18       2.753899545014e-09       1.966739834267e-10      -8.559981435579e-13 
    6       1.162951738853e-10       4.251437554198e-15       3.586662076156e-13       2.034117128149e-18       2.159296559470e-09       1.605268141680e-10      -4.903284080599e-13 
    7       1.135570096925e-10       2.426243616088e-15       2.904999859289e-13       2.713694919944e-18       1.748772361267e-09       1.339512084105e-10      -2.141490550017e-13 
    8       1.118291208302e-10       1.370407386996e-15       2.312467226766e-13       3.491236035327e-18       1.450676423537e-09       1.137190736068e-10      -2.762654639914e-14 
    9       1.108907255060e-10       9.305502175732e-16       1.851206719601e-13       4.367043806197e-18       1.225705461239e-09       9.785114729620e-11       7.879553684606e-14 
   10       1.105410585713e-10       7.915027313565e-16       1.532385023899e-13       5.341432012675e-18       1.050924557175e-09       8.517437295384e-11       1.208394097293e-13 
   11       1.106476764133e-10       7.179822606807e-16       1.346186007877e-13       6.414717586992e-18       8.849006373736e-10       7.659361830912e-11       1.163841483484e-13 
   12       1.111494740115e-10       6.272698971394e-16       1.268582126831e-13       7.587213658815e-18       7.755494192488e-10       6.628878403904e-11       8.731020797971e-14 
   13       1.119052694463e-10       5.379275694954e-16       1.269900837854e-13       8.859223184873e-18       6.855802710044e-10       5.864589471149e-11       4.494970269994e-14 
   14       1.128381720885e-10       4.876384011861e-16       1.321835240109e-13       1.023103337956e-17       6.106010528172e-10       5.386687451240e-11       3.964188521354e-15 
   15       1.139628616687e-10       4.862920854909e-16       1.400660039190e-13       1.170291112861e-17       5.473560984181e-10       4.868616872267e-11      -2.626344795668e-14 
   16       1.152872789969e-10       5.164424114902e-16       1.488029337073e-13       1.327509952637e-17       4.934396886380e-10       4.354128812833e-11      -4.514494658780e-14 
   17       1.166667580193e-10       5.566931482344e-16       1.573620900370e-13       1.494781563010e-17       4.470486641826e-10       4.044097154158e-11      -5.196201103868e-14 
   18       1.181613034139e-10       5.994924879405e-16       1.652645520113e-13       1.672124889290e-17       4.065681700761e-10       3.709992570323e-11      -4.719581713265e-14 
   19       1.197839846966e-10       6.532064609036e-16       1.725618299449e-13       1.859556433887e-17       3.715184040710e-10       3.358339680181e-11      -3.532284854237e-14 
   20       1.214542179323e-10       7.307371812729e-16       1.795142505574e-13       2.057089764566e-17       3.407636998649e-10       3.102329262907e-11      -2.282537536484e-14 
   21       1.231862450941e-10       8.370843291087e-16       1.865059290934e-13       2.264736629579e-17       3.136863653351e-10       2.901691635963e-11      -1.191530479877e-14 
   22       1.249910209954e-10       9.733094230787e-16       1.939550564265e-13       2.482506387519e-17       2.894117488652e-10       2.671190109297e-11      -3.560437338713e-15 
   23       1.268543785454e-10       1.136155448153e-15       2.019671940131e-13       2.710407388919e-17       2.677147880686e-10       2.452651187046e-11       8.804999387002e-16 
   24       1.287376365568e-10       1.320647817613e-15       2.104875853032e-13       2.948446400838e-17       2.483070547322e-10       2.314540533180e-11       3.465847813162e-16 
   25       1.306612512928e-10       1.526721322857e-15       2.193201286574e-13       3.196630275528e-17       2.309667970247e-10       2.205774802466e-11      -3.809250302646e-15 
   26       1.326456781826e-10       1.755433471103e-15       2.281444658577e-13       3.454965252921e-17       2.153148564594e-10       2.046370159837e-11      -9.216307781746e-15 
   27       1.346794682647e-10       2.006161968574e-15       2.365327073405e-13       3.723458445894e-17       2.011144227197e-10       1.867217052940e-11      -1.432171224894e-14 
   28       1.367333549416e-10       2.277758362653e-15       2.440104670477e-13       4.002117379745e-17       1.880860726507e-10       1.729245974317e-11      -1.784388304952e-14 
   29       1.388146783085e-10       2.570535449922e-15       2.503433681838e-13       4.290951842003e-17       1.761970977493e-10       1.634475564939e-11      -1.947934427986e-14 
   30       1.409314761533e-10       2.885254957964e-15       2.553590538704e-13       4.589972693570e-17       1.653875355225e-10       1.562144941092e-11      -1.928010756481e-14 
   31       1.430812797921e-10       3.222999444760e-15       2.589144723058e-13       4.899191847697e-17       1.555025926878e-10       1.489734957471e-11      -1.745190354979e-14 
   32       1.452664251866e-10       3.586195786728e-15       2.610414593015e-13       5.218623780096e-17       1.464734465408e-10       1.414898776203e-11      -1.454264029924e-14 
   33       1.474817754120e-10       3.978027622374e-15       2.618612026344e-13       5.548284879981e-17       1.381848709370e-10       1.341540389985e-11      -1.135009786752e-14 
   34       1.497160227491e-10       4.401566097142e-15       2.615231715699e-13       5.888193116883e-17       1.304721782086e-10       1.273294251886e-11      -8.716808686396e-15 
   35       1.519751203701e-10       4.857537769253e-15       2.601088204539e-13       6.238367593851e-17       1.233080113778e-10       1.210449361090e-11      -6.930000903149e-15 
   36       1.542654081930e-10       5.345758883379e-15       2.576978424926e-13       6.598829130630e-17       1.166707160075e-10       1.151889370562e-11      -6.117442166542e-15 
   37       1.565880641301e-10       5.865959365715e-15       2.543517361212e-13       6.969599566346e-17       1.105095902586e-10       1.096271724619e-11      -6.336463199933e-15 
   38       1.589439564322e-10       6.418682126978e-15       2.499653929615e-13       7.350698385694e-17       1.048103202360e-10       1.043489735950e-11      -7.340344206848e-15 
   39       1.613291887461e-10       7.004661781597e-15       2.443648735656e-13       7.742145169906e-17       9.954513500569e-11       9.936373775345e-12      -8.726796493992e-15 
   40       1.637329467468e-10       7.624579388135e-15       2.373443040190e-13       8.143960607326e-17       9.465146898499e-11       9.465916217189e-12      -9.991956758129e-15 
   41       1.661427791965e-10       8.279073406365e-15       2.287050243863e-13       8.556164839162e-17       9.005281606209e-11       9.021178876352e-12      -1.065390997261e-14 
   42       1.685641125329e-10       8.968785285942e-15       2.183936656026e-13       8.978771648936e-17       8.573662822328e-11       8.602769312090e-12      -1.068759044327e-14 
   43       1.710059660143e-10       9.694322817665e-15       2.064053073585e-13       9.411792521626e-17       8.169675426208e-11       8.211159188722e-12      -1.022027318808e-14 
   44       1.734752982752e-10       1.045624448583e-14       1.927466275794e-13       9.855238182361e-17       7.791047107657e-11       7.845423002808e-12      -9.415889396297e-15 
   45       1.759766376645e-10       1.125504266984e-14       1.774335208343e-13       1.030911699989e-16       7.434740526671e-11       7.503841227773e-12      -8.453772336667e-15 
   46       1.785114514712e-10       1.209109321710e-14       1.604815892658e-13       1.077342971542e-16       7.100264612832e-11       7.186203989846e-12      -7.451848429191e-15 
   47       1.810781477956e-10       1.296468649459e-14       1.419139026004e-13       1.124817307465e-16       6.787124561181e-11       6.891994547748e-12      -6.524431442105e-15 
   48       1.836719116291e-10       1.387603708808e-14       1.217642325896e-13       1.173334112658e-16       6.493807852778e-11       6.619652519081e-12      -5.804742329989e-15 
   49       1.862844396155e-10       1.482528045251e-14       1.000775218257e-13       1.222892509649e-16       6.217708957028e-11       6.366496951934e-12      -5.445872519229e-15 
   50       1.889072809940e-10       1.581252689362e-14       7.689160886688e-14       1.273491325798e-16       5.955909622810e-11       6.129312771358e-12      -5.570711802767e-15 
   51       1.915435448815e-10       1.683804855801e-14       5.217546800047e-14       1.325129080264e-16       5.707944135656e-11       5.906476255565e-12      -6.103474128384e-15 
   52       1.941989123192e-10       1.790213740944e-14       2.587501573826e-14       1.377803971548e-16       5.473654501723e-11       5.696273520765e-12      -6.894106488060e-15 
   53       1.968782145646e-10       1.900505169753e-14      -2.070014125745e-15       1.431513864874e-16       5.252366258256e-11       5.496242944644e-12      -7.763923180721e-15 
   54       1.995853375558e-10       2.014701530614e-14      -3.172648375564e-14       1.486256279493e-16       5.042853438913e-11       5.303129455609e-12      -8.504167432260e-15 
   55       2.023231214858e-10       2.132816275224e-14      -6.315573505386e-14       1.542028653277e-16       4.843722280083e-11       5.113843611818e-12      -8.928532167946e-15 
   56       2.050932491737e-10       2.254835967509e-14      -9.637276958726e-14       1.598829242617e-16       4.654754224752e-11       4.928722562283e-12      -9.049296297595e-15 
   57       2.078961626240e-10       2.380733661133e-14      -1.313776519012e-13       1.656656423827e-16       4.475835183643e-11       4.748999112532e-12      -8.942425029439e-15 
   58       2.107309718443e-10       2.510473672839e-14      -1.681670772339e-13       1.715508433563e-16       4.306547712287e-11       4.575861489957e-12      -8.698093829146e-15 
   59       2.135953591191e-10       2.644011305538e-14      -2.067342965957e-13       1.775383366925e-16       4.146152290936e-11       4.410446780714e-12      -8.421352344477e-15 
   60       2.164854832837e-10       2.781292571390e-14      -2.470690418489e-13       1.836279175551e-16       3.993568604470e-11       4.253834366618e-12      -8.232788329942e-15 
   61       2.193974988714e-10       2.922261738521e-14      -2.891602553919e-13       1.898194069430e-16       3.847676038841e-11       4.106851879352e-12      -8.239289728520e-15 
   62       2.223327285844e-10       3.066886577100e-14      -3.330051646866e-13       1.961127832009e-16       3.708336339527e-11       3.969457013514e-12      -8.437159961167e-15 
   63       2.252934872548e-10       3.215138314415e-14      -3.786021209284e-13       2.025080798245e-16       3.575568325276e-11       3.841204677041e-12      -8.788335000888e-15 
   64       2.282815258157e-10       3.366984283166e-14      -4.259479879677e-13       2.090053487637e-16       3.449240505774e-11       3.721409965605e-12      -9.248087039019e-15 
   65       2.312979868125e-10       3.522387892795e-14      -4.750381563778e-13       2.156046615136e-16       3.329062490061e-11       3.609135650825e-12      -9.764739647021e-15 
   66       2.343433599161e-10       3.681308600799e-14      -5.258665575222e-13       2.223061102054e-16       3.214576394930e-11       3.503179668479e-12      -1.027938293827e-14 
   67       2.374174374349e-10       3.843701884057e-14      -5.784256776223e-13       2.291098086969e-16       3.105148253340e-11       3.402062606725e-12      -1.072558872986e-14 
   68       2.405198481358e-10       4.009509241269e-14      -6.327036979195e-13       2.360158927775e-16       3.000138687605e-11       3.304373577729e-12      -1.104420540491e-14 
   69       2.436518837543e-10       4.178625912015e-14      -6.886752108141e-13       2.430245183907e-16       2.899474292103e-11       3.209917181661e-12      -1.123186034083e-14 
   70       2.468149643641e-10       4.350926535153e-14      -7.463086391999e-13       2.501358650096e-16       2.803177125393e-11       3.118777538905e-12      -1.130181880951e-14 
   71       2.500100636510e-10       4.526274260410e-14      -8.055688855579e-13       2.573501375400e-16       2.711191754361e-11       3.030977183751e-12      -1.126987286632e-14 
   72       2.532376792154e-10       4.704520464740e-14      -8.664172725220e-13       2.646675673887e-16       2.623381247408e-11       2.946473718430e-12      -1.115444218201e-14 
   73       2.564978028753e-10       4.885504468686e-14      -9.288114834452e-13       2.720884135320e-16       2.539523167630e-11       2.865156467141e-12      -1.097667487463e-14 
   74       2.597898909696e-10       5.069053252749e-14      -9.927055029659e-13       2.796129635833e-16       2.459305566006e-11       2.786843130085e-12      -1.076054834134e-14 
   75       2.631128346606e-10       5.254981173743e-14      -1.058049557574e-12       2.872415348620e-16       2.382322974581e-11       2.711276437490e-12      -1.053297009036e-14 
   76       2.664654923667e-10       5.443108226515e-14      -1.124795105610e-12       2.949744320588e-16       2.308177607529e-11       2.638198764420e-12      -1.031829524704e-14 
   77       2.698484647969e-10       5.633319300654e-14      -1.192910989174e-12       3.028118089613e-16       2.236813127002e-11       2.567599079902e-12      -1.012050197147e-14 
   78       2.732625911529e-10       5.825515264416e-14      -1.262370133299e-12       3.107537833368e-16       2.168234744295e-11       2.499505160433e-12      -9.937933732087e-15 
   79       2.767083978385e-10       6.019595473083e-14      -1.333144801212e-12       3.188004782733e-16       2.102407591906e-11       2.433907905152e-12      -9.768580838029e-15 
   80       2.801860802894e-10       6.215457865610e-14      -1.405206638437e-12       3.269520223577e-16       2.039254874101e-11       2.370759588517e-12      -9.610066780384e-15 
   81       2.836954848036e-10       6.412999061278e-14      -1.478526716912e-12       3.352085498537e-16       1.978656017464e-11       2.309972112992e-12      -9.459634573456e-15 
   82       2.872360903708e-10       6.612114456340e-14      -1.553075579089e-12       3.435702008802e-16       1.920444821458e-11       2.251415261716e-12      -9.314133096031e-15 
   83       2.908069905022e-10       6.812698320677e-14      -1.628823282051e-12       3.520371215893e-16       1.864407608982e-11       2.194914951191e-12      -9.170003432643e-15 
   84       2.944072971805e-10       7.014633644153e-14      -1.705735735405e-12       3.606094702438e-16       1.810335413339e-11       2.140299610878e-12      -9.024118271495e-15 
   85       2.980374694524e-10       7.217759529972e-14      -1.783762920817e-12       3.692874362153e-16       1.758194530677e-11       2.087551983667e-12      -8.876489902674e-15 
   86       3.016981727985e-10       7.421898547903e-14      -1.862848791319e-12       3.780712244767e-16       1.707980982130e-11       2.036679404093e-12      -8.727988193354e-15 
   87       3.053898656839e-10       7.626866429450e-14      -1.942934785966e-12       3.869610502567e-16       1.659668063888e-11       1.987666984260e-12      -8.579528114387e-15 
   88       3.091127884830e-10       7.832471992226e-14      -2.023959811656e-12       3.959571393170e-16       1.613205405933e-11       1.940476675381e-12      -8.432070418653e-15 
   89       3.128669524030e-10       8.038517064335e-14      -2.105860224948e-12       4.050597282298e-16       1.568518030770e-11       1.895046329312e-12      -8.286622319409e-15 
   90       3.166521284091e-10       8.244796408739e-14      -2.188569813886e-12       4.142690646549e-16       1.525505412156e-11       1.851288760086e-12      -8.144238168648e-15 
   91       3.204678361482e-10       8.451097647644e-14      -2.272019779813e-12       4.235854076174e-16       1.484040533839e-11       1.809090805448e-12      -8.006020135444e-15 
   92       3.243133328735e-10       8.657201186872e-14      -2.356138719194e-12       4.330090277845e-16       1.443968948281e-11       1.768312388392e-12      -7.873118884307e-15 
   93       3.281878768855e-10       8.862890076617e-14      -2.440855700659e-12       4.425402582375e-16       1.405145528171e-11       1.728819572557e-12      -7.746545246275e-15 
   94       3.320915872360e-10       9.067981454451e-14      -2.526110065005e-12       4.521796549183e-16       1.367553088243e-11       1.690591453768e-12      -7.626571358102e-15 
   95       3.360246934473e-10       9.272299713531e-14      -2.611843072359e-12       4.619278609390e-16       1.331199946891e-11       1.653627684666e-12      -7.513240289468e-15 
   96       3.399872653071e-10       9.475667047547e-14      -2.697994962266e-12       4.717855591952e-16       1.296083404851e-11       1.617915447781e-12      -7.406545134504e-15 
   97       3.439792055606e-10       9.677903511487e-14      -2.784504977994e-12       4.817534733366e-16       1.262189321341e-11       1.583428983694e-12      -7.306427095668e-15 
   98       3.480002426033e-10       9.878827082413e-14      -2.871311390844e-12       4.918323687375e-16       1.229491690191e-11       1.550129119202e-12      -7.212773567627e-15 
   99       3.520499231738e-10       1.007825372023e-13      -2.958351524455e-12       5.020230534671e-16       1.197952215980e-11       1.517962795479e-12      -7.125416221136e-15 
  100       3.561276050457e-10       1.027599742846e-13      -3.045561779112e-12       5.123263792603e-16       1.167519890169e-11       1.486862596239e-12      -7.044129086921e-15 
  101       3.602324497210e-10       1.047187031500e-13      -3.132877656054e-12       5.227432424875e-16       1.138130567239e-11       1.456746275904e-12      -6.968626639555e-15 
  102       3.643634151219e-10       1.066568265293e-13      -3.220233781780e-12       5.332745851259e-16       1.109706540821e-11       1.427516287761e-12      -6.898561881342e-15 
  103       3.685192482839e-10       1.085724294124e-13      -3.307563932357e-12       5.439213957292e-16       1.082156119834e-11       1.399059312128e-12      -6.833524426197e-15 
  104       3.726987508501e-10       1.104636096841e-13      -3.394800965029e-12       5.546846424611e-16       1.055394525713e-11       1.371272218741e-12      -6.773067365219e-15 
  105       3.769016321389e-10       1.123285734353e-13      -3.481876550176e-12       5.655650598006e-16       1.029410711994e-11       1.344144964379e-12      -6.716796123622e-15 
  106       3.811277582271e-10       1.141655537200e-13      -3.568721448289e-12       5.765633346983e-16       1.004208822897e-11       1.317688065992e-12      -6.664288090766e-15 
  107       3.853768851801e-10       1.159727826030e-13      -3.655265622451e-12       5.876801721629e-16       9.797874909882e-12       1.291906987304e-12      -6.615063329795e-15 
