# Matter power spectrum P(k) at redshift z=0
# for k=1.05281e-05 to 5.08923 h/Mpc,
# number of wavenumbers equal to 681
#    1:k (h/Mpc)              2:P (Mpc/h)^3        
       1.052808673426e-05       4.927704297012e+01 
       2.352858924850e-05       1.068021766006e+02 
       3.657561012704e-05       1.632554028275e+02 
       4.970490954058e-05       2.192744333037e+02 
       6.295284960798e-05       2.752190677726e+02 
       7.635672464984e-05       3.313573063379e+02 
       8.995510218379e-05       3.879172841775e+02 
       1.037881792750e-04       4.451085485107e+02 
       1.178981588899e-04       5.031329371483e+02 
       1.323296509351e-04       5.621911366013e+02 
       1.471301026669e-04       6.224872272327e+02 
       1.623502630831e-04       6.842321983984e+02 
       1.780446857044e-04       7.476469651305e+02 
       1.942722737312e-04       8.129650824967e+02 
       2.110968708146e-04       8.804353740280e+02 
       2.285878994669e-04       9.503245014495e+02 
       2.468210472554e-04       1.022919549639e+03 
       2.658789981420e-04       1.098530617354e+03 
       2.858522023285e-04       1.177493409984e+03 
       3.068396723921e-04       1.260171780621e+03 
       3.289497859130e-04       1.346960102367e+03 
       3.523010647711e-04       1.438285420012e+03 
       3.770228884296e-04       1.534609092448e+03 
       4.032560825723e-04       1.636427823697e+03 
       4.311533055425e-04       1.744273595832e+03 
       4.608791338532e-04       1.858712321773e+03 
       4.926097263128e-04       1.980340561640e+03 
       5.265319271458e-04       2.109780016063e+03 
       5.628416567827e-04       2.247669063996e+03 
       6.017414415631e-04       2.394651065908e+03 
       6.434369587909e-04       2.551358956176e+03 
       6.881325299149e-04       2.718396171844e+03 
       7.360255881959e-04       2.896314189981e+03 
       7.873002779907e-04       3.085587508596e+03 
       8.421205003064e-04       3.286587611867e+03 
       9.006228800244e-04       3.499557672575e+03 
       9.629102586023e-04       3.724590763376e+03 
       1.029046371625e-03       3.961613723583e+03 
       1.099052320508e-03       4.210379033158e+03 
       1.172905281518e-03       4.470466202437e+03 
       1.250539634497e-03       4.741292745371e+03 
       1.331850389704e-03       5.022134254837e+03 
       1.416698510612e-03       5.312191227619e+03 
       1.504917533074e-03       5.610530422335e+03 
       1.596320800420e-03       5.916159186291e+03 
       1.690708669444e-03       6.228078574177e+03 
       1.787875165225e-03       6.545293591948e+03 
       1.887613730830e-03       6.866834970175e+03 
       1.989721890091e-03       7.191776090221e+03 
       2.094004788356e-03       7.519245372963e+03 
       2.200277682713e-03       7.848434489738e+03 
       2.308367517734e-03       8.178601644565e+03 
       2.418113751445e-03       8.509073788789e+03 
       2.529368598707e-03       8.839243813752e+03 
       2.641996845201e-03       9.168569726078e+03 
       2.755875362810e-03       9.496579434216e+03 
       2.870892432241e-03       9.822813442345e+03 
       2.986946954714e-03       1.014693027261e+04 
       3.103947613398e-03       1.046858940470e+04 
       3.221812027837e-03       1.078750395860e+04 
       3.340465930702e-03       1.110342476475e+04 
       3.459842385662e-03       1.141613523854e+04 
       3.579881057369e-03       1.172544970505e+04 
       3.700527538939e-03       1.203120773499e+04 
       3.821732738472e-03       1.233327197894e+04 
       3.943452323554e-03       1.263152884028e+04 
       4.065646221063e-03       1.292587964137e+04 
       4.188278168679e-03       1.321624345268e+04 
       4.311315313972e-03       1.350255349001e+04 
       4.434727856837e-03       1.378475725574e+04 
       4.558488731065e-03       1.406281351023e+04 
       4.682573321059e-03       1.433668960673e+04 
       4.806959209934e-03       1.460633536344e+04 
       4.931625955575e-03       1.487178825112e+04 
       5.056554891509e-03       1.513300617872e+04 
       5.181728949793e-03       1.539000362031e+04 
       5.307132503374e-03       1.564280988665e+04 
       5.432751225699e-03       1.589139456902e+04 
       5.558571965559e-03       1.613577759912e+04 
       5.684582635425e-03       1.637596286464e+04 
       5.810772111707e-03       1.661197724847e+04 
       5.937130145567e-03       1.684383813587e+04 
       6.063647283080e-03       1.707157674032e+04 
       6.190314793671e-03       1.729521485580e+04 
       6.317124605899e-03       1.751478716294e+04 
       6.444069249759e-03       1.773031655393e+04 
       6.571141804772e-03       1.794182031122e+04 
       6.698335853232e-03       1.814937754323e+04 
       6.825645438037e-03       1.835297288005e+04 
       6.953065024609e-03       1.855267452132e+04 
       7.080589466470e-03       1.874849889855e+04 
       7.208213974067e-03       1.894047366522e+04 
       7.335934086534e-03       1.912867235526e+04 
       7.463745646050e-03       1.931308711991e+04 
       7.591644774551e-03       1.949376419639e+04 
       7.719627852549e-03       1.967078527724e+04 
       7.847691499835e-03       1.984413514715e+04 
       7.975832557900e-03       2.001386834991e+04 
       8.104048073873e-03       2.018003611526e+04 
       8.232335285865e-03       2.034265104547e+04 
       8.360691609549e-03       2.050174142874e+04 
       8.489114625883e-03       2.065740951289e+04 
       8.617602069851e-03       2.080962803760e+04 
       8.746151820137e-03       2.095845214227e+04 
       8.874761889647e-03       2.110389115693e+04 
       9.003430416790e-03       2.124603969342e+04 
       9.132155657464e-03       2.138490594954e+04 
       9.260935977668e-03       2.152053173256e+04 
       9.389769846707e-03       2.165295698474e+04 
       9.518655830914e-03       2.178219851260e+04 
       9.647592587857e-03       2.190829903143e+04 
       9.776578860994e-03       2.203124184587e+04 
       9.905613474729e-03       2.215117391866e+04 
       1.003469532983e-02       2.226805895232e+04 
       1.016382339922e-02       2.238194643890e+04 
       1.029299672401e-02       2.249289031839e+04 
       1.042221440992e-02       2.260086355957e+04 
       1.055147562387e-02       2.270596139891e+04 
       1.068077959088e-02       2.280820466458e+04 
       1.081012559114e-02       2.290760136970e+04 
       1.093951295736e-02       2.300426294710e+04 
       1.106894107222e-02       2.309801739898e+04 
       1.119840936608e-02       2.318912171531e+04 
       1.132791731481e-02       2.327749412237e+04 
       1.145746443775e-02       2.336319961933e+04 
       1.158705029591e-02       2.344630141260e+04 
       1.171667449017e-02       2.352675623188e+04 
       1.184633665969e-02       2.360466766565e+04 
       1.197603648040e-02       2.367999430611e+04 
       1.210577366362e-02       2.375290788409e+04 
       1.223554795473e-02       2.382316455237e+04 
       1.236535913201e-02       2.389110435391e+04 
       1.249520700545e-02       2.395646802628e+04 
       1.262509141578e-02       2.401952752232e+04 
       1.275501223345e-02       2.408017413928e+04 
       1.288496935775e-02       2.413851135949e+04 
       1.301496271599e-02       2.419447684797e+04 
       1.314499226272e-02       2.424820136457e+04 
       1.327505797901e-02       2.429964633910e+04 
       1.340515987180e-02       2.434886524191e+04 
       1.353529797330e-02       2.439590122599e+04 
       1.366547234042e-02       2.444072091261e+04 
       1.379568305429e-02       2.448341009954e+04 
       1.392593021973e-02       2.452393353431e+04 
       1.405621396487e-02       2.456234531706e+04 
       1.418653444076e-02       2.459877769920e+04 
       1.431689182101e-02       2.463320181484e+04 
       1.444728630145e-02       2.466545564503e+04 
       1.457771809988e-02       2.469576878176e+04 
       1.470818745581e-02       2.472410493509e+04 
       1.483869463022e-02       2.475047920780e+04 
       1.496923990539e-02       2.477497855508e+04 
       1.509982358472e-02       2.479753898601e+04 
       1.523044599259e-02       2.481826119007e+04 
       1.536110747427e-02       2.483709356943e+04 
       1.549180839581e-02       2.485411296688e+04 
       1.562254914397e-02       2.486933154050e+04 
       1.575333012620e-02       2.488276136671e+04 
       1.588415177062e-02       2.489453194674e+04 
       1.601501452598e-02       2.490440948949e+04 
       1.614591886173e-02       2.491263921578e+04 
       1.627686526807e-02       2.491921267498e+04 
       1.640785425596e-02       2.492411050401e+04 
       1.653888635724e-02       2.492735060002e+04 
       1.666996212473e-02       2.492900183989e+04 
       1.680108213232e-02       2.492913886727e+04 
       1.693224697516e-02       2.492752187100e+04 
       1.706345726977e-02       2.492442448925e+04 
       1.719471365421e-02       2.491982289853e+04 
       1.732601678832e-02       2.491367982868e+04 
       1.745736735386e-02       2.490605981876e+04 
       1.758876605479e-02       2.489698520210e+04 
       1.772021361748e-02       2.488646548682e+04 
       1.785171079099e-02       2.487450148726e+04 
       1.798325834731e-02       2.486112841992e+04 
       1.811485708169e-02       2.484642648324e+04 
       1.824650781291e-02       2.483028651463e+04 
       1.837821138366e-02       2.481287874415e+04 
       1.850996866080e-02       2.479406040315e+04 
       1.864178053581e-02       2.477401206184e+04 
       1.877364792508e-02       2.475265148296e+04 
       1.890557177037e-02       2.473004380823e+04 
       1.903755303916e-02       2.470616199961e+04 
       1.916959272514e-02       2.468109089064e+04 
       1.930169184858e-02       2.465477424133e+04 
       1.943385145688e-02       2.462727853915e+04 
       1.956607262496e-02       2.459863946654e+04 
       1.969835645580e-02       2.456884996679e+04 
       1.983070408099e-02       2.453788303854e+04 
       1.996311666120e-02       2.450585292767e+04 
       2.009559538677e-02       2.447274579916e+04 
       2.022814147827e-02       2.443848844668e+04 
       2.036075618713e-02       2.440318929587e+04 
       2.049344079619e-02       2.436687262741e+04 
       2.062619662040e-02       2.432950850717e+04 
       2.075902500742e-02       2.429121037088e+04 
       2.089192733834e-02       2.425187912968e+04 
       2.102490502836e-02       2.421153663613e+04 
       2.115795952753e-02       2.417028029626e+04 
       2.129109232145e-02       2.412809976015e+04 
       2.142430493210e-02       2.408497297777e+04 
       2.155759891859e-02       2.404093998662e+04 
       2.169097587801e-02       2.399604455469e+04 
       2.182443744626e-02       2.395026584635e+04 
       2.195798529890e-02       2.390354824746e+04 
       2.209162115210e-02       2.385618019503e+04 
       2.222534676353e-02       2.380795713424e+04 
       2.235916393333e-02       2.375876535217e+04 
       2.249307450509e-02       2.370889976672e+04 
       2.262708036687e-02       2.365835026918e+04 
       2.276118345226e-02       2.360689700033e+04 
       2.289538574145e-02       2.355470892873e+04 
       2.302968926233e-02       2.350184113076e+04 
       2.316409609169e-02       2.344818182228e+04 
       2.329860835636e-02       2.339392157040e+04 
       2.343322823444e-02       2.333886802989e+04 
       2.356795795659e-02       2.328323522818e+04 
       2.370279980730e-02       2.322698840532e+04 
       2.383775612625e-02       2.316994066633e+04 
       2.397282930970e-02       2.311232936896e+04 
       2.410802181192e-02       2.305411088798e+04 
       2.424333614662e-02       2.299533761573e+04 
       2.437877488857e-02       2.293600304584e+04 
       2.451434067505e-02       2.287594315462e+04 
       2.465003620759e-02       2.281550283495e+04 
       2.478586425355e-02       2.275444162579e+04 
       2.492182764790e-02       2.269278046580e+04 
       2.505792929499e-02       2.263070171674e+04 
       2.519417217041e-02       2.256814947171e+04 
       2.533055932288e-02       2.250499163118e+04 
       2.546709387619e-02       2.244147953099e+04 
       2.560377903131e-02       2.237734556416e+04 
       2.574061806840e-02       2.231285622081e+04 
       2.587761434906e-02       2.224786590533e+04 
       2.601477131852e-02       2.218248721729e+04 
       2.615209250799e-02       2.211662086723e+04 
       2.628958153707e-02       2.205040494597e+04 
       2.642724211621e-02       2.198371710657e+04 
       2.656507804928e-02       2.191686404283e+04 
       2.670309323625e-02       2.184938949845e+04 
       2.684129167594e-02       2.178166885702e+04 
       2.697967746885e-02       2.171358105639e+04 
       2.711825482014e-02       2.164507582981e+04 
       2.725702804266e-02       2.157626061627e+04 
       2.739600156014e-02       2.150721737961e+04 
       2.753517991045e-02       2.143787882154e+04 
       2.767456774903e-02       2.136811750413e+04 
       2.781416985240e-02       2.129805235333e+04 
       2.795399112180e-02       2.122774786181e+04 
       2.809403658703e-02       2.115714594437e+04 
       2.823431141033e-02       2.108640107872e+04 
       2.837482089052e-02       2.101538054116e+04 
       2.851557046719e-02       2.094413602154e+04 
       2.865656572515e-02       2.087254361609e+04 
       2.879781239898e-02       2.080075258000e+04 
       2.893931637776e-02       2.072879398636e+04 
       2.908108371007e-02       2.065659086977e+04 
       2.922312060906e-02       2.058415381485e+04 
       2.936543345782e-02       2.051161277445e+04 
       2.950802881494e-02       2.043887382390e+04 
       2.965091342027e-02       2.036595788056e+04 
       2.979409420095e-02       2.029284307748e+04 
       2.993757827766e-02       2.021954325439e+04 
       3.008137297114e-02       2.014628592618e+04 
       3.022548580902e-02       2.007264187299e+04 
       3.036992453286e-02       1.999890496925e+04 
       3.051469710554e-02       1.992511637973e+04 
       3.065981171900e-02       1.985119540862e+04 
       3.080527680224e-02       1.977716814016e+04 
       3.095110102970e-02       1.970303159805e+04 
       3.109729333004e-02       1.962877848583e+04 
       3.124386289530e-02       1.955440359311e+04 
       3.139081919040e-02       1.947992813101e+04 
       3.153817196318e-02       1.940541770575e+04 
       3.168593125484e-02       1.933095135972e+04 
       3.183410741084e-02       1.925622753805e+04 
       3.198271109235e-02       1.918155342403e+04 
       3.213175328825e-02       1.910676132679e+04 
       3.228124532761e-02       1.903184721461e+04 
       3.243119889292e-02       1.895704023070e+04 
       3.258162603376e-02       1.888205702394e+04 
       3.273253918136e-02       1.880717896805e+04 
       3.288395116368e-02       1.873219362721e+04 
       3.303587522135e-02       1.865715087245e+04 
       3.318832502441e-02       1.858215266939e+04 
       3.334131468986e-02       1.850707848841e+04 
       3.349485880011e-02       1.843194821345e+04 
       3.364897242244e-02       1.835687473450e+04 
       3.380367112941e-02       1.828176845450e+04 
       3.395897102040e-02       1.820673806565e+04 
       3.411488874427e-02       1.813156363774e+04 
       3.427144152330e-02       1.805651510789e+04 
       3.442864717833e-02       1.798147522609e+04 
       3.458652415539e-02       1.790632615153e+04 
       3.474509155382e-02       1.783129609599e+04 
       3.490436915585e-02       1.775631392193e+04 
       3.506437745803e-02       1.768122134792e+04 
       3.522513770439e-02       1.760626451736e+04 
       3.538667192150e-02       1.753124386298e+04 
       3.554900295570e-02       1.745628339194e+04 
       3.571215451249e-02       1.738136146139e+04 
       3.587615119828e-02       1.730646797027e+04 
       3.604101856477e-02       1.723159044130e+04 
       3.620678315601e-02       1.715669274886e+04 
       3.637347255842e-02       1.708192294624e+04 
       3.654111545403e-02       1.700709987125e+04 
       3.670974167710e-02       1.693245646632e+04 
       3.687938227437e-02       1.685768548632e+04 
       3.705006956943e-02       1.678300752648e+04 
       3.722183723122e-02       1.670843840596e+04 
       3.739472034724e-02       1.663373336273e+04 
       3.756875550181e-02       1.655915739771e+04 
       3.774398085966e-02       1.648465849093e+04 
       3.792043625547e-02       1.641018841845e+04 
       3.809816328979e-02       1.633555885115e+04 
       3.827720543190e-02       1.626120909574e+04 
       3.845760813015e-02       1.618679518008e+04 
       3.863941893057e-02       1.611247716784e+04 
       3.882268760443e-02       1.603803102568e+04 
       3.900746628549e-02       1.596376177273e+04 
       3.919380961801e-02       1.588933131360e+04 
       3.938177491633e-02       1.581502927379e+04 
       3.957142233728e-02       1.574079408617e+04 
       3.976281506663e-02       1.566643537337e+04 
       3.995601952083e-02       1.559215298518e+04 
       4.015110556577e-02       1.551799995658e+04 
       4.034814675414e-02       1.544371353508e+04 
       4.054722058333e-02       1.536940493760e+04 
       4.074840877607e-02       1.529506196768e+04 
       4.095179758618e-02       1.522082000130e+04 
       4.115747813216e-02       1.514646061346e+04 
       4.136554676170e-02       1.507210309150e+04 
       4.157610545058e-02       1.499769220786e+04 
       4.178926223978e-02       1.492329399209e+04 
       4.200513171540e-02       1.484875300518e+04 
       4.222383553632e-02       1.477419135556e+04 
       4.244550301537e-02       1.469950939934e+04 
       4.267027176060e-02       1.462485897959e+04 
       4.289828838407e-02       1.455003573975e+04 
       4.312970928696e-02       1.447507084342e+04 
       4.336470153057e-02       1.440009566985e+04 
       4.360344380498e-02       1.432495588187e+04 
       4.384612750828e-02       1.424968509497e+04 
       4.409295795167e-02       1.417418613408e+04 
       4.434415570837e-02       1.409849578850e+04 
       4.459995812672e-02       1.402274414638e+04 
       4.486062103189e-02       1.394667908063e+04 
       4.512642064442e-02       1.387046624915e+04 
       4.539765574891e-02       1.379392187925e+04 
       4.567465015234e-02       1.371717136830e+04 
       4.595775547843e-02       1.364016139565e+04 
       4.624735435367e-02       1.356271174198e+04 
       4.654386405088e-02       1.348498973359e+04 
       4.684774066961e-02       1.340684598975e+04 
       4.715948394842e-02       1.332828345313e+04 
       4.747964282379e-02       1.324933380985e+04 
       4.780882187505e-02       1.316980722695e+04 
       4.814768882425e-02       1.308976149210e+04 
       4.849698329841e-02       1.300915809041e+04 
       4.885752710771e-02       1.292784389799e+04 
       4.923023635317e-02       1.284587437500e+04 
       4.961613575136e-02       1.276310023827e+04 
       5.001637565841e-02       1.267951107065e+04 
       5.043225239544e-02       1.259500368878e+04 
       5.086523262998e-02       1.250939455054e+04 
       5.131698276258e-02       1.242266132128e+04 
       5.178940451551e-02       1.233463988252e+04 
       5.228467823599e-02       1.224519594534e+04 
       5.280531582480e-02       1.215413133566e+04 
       5.335422570040e-02       1.206126722704e+04 
       5.393479282158e-02       1.196633400041e+04 
       5.455097751857e-02       1.186900548676e+04 
       5.520743769285e-02       1.176894357838e+04 
       5.590967973227e-02       1.166571974657e+04 
       5.666424399208e-02       1.155871229859e+04 
       5.747893033966e-02       1.144721567385e+04 
       5.836306687919e-02       1.133030972512e+04 
       5.932781827243e-02       1.120674450011e+04 
       6.038651484477e-02       1.107493634326e+04 
       6.155495275578e-02       1.093273431479e+04 
       6.285155837722e-02       1.077721484830e+04 
