# Matter power spectrum P(k) at redshift z=0
# for k=1.05281e-05 to 5.08923 h/Mpc,
# number of wavenumbers equal to 681
#    1:k (h/Mpc)              2:P (Mpc/h)^3        
       1.052808673426e-05       4.927704122080e+01 
       2.352858924850e-05       1.068021548428e+02 
       3.657561012704e-05       1.632554046685e+02 
       4.970490954058e-05       2.192744219666e+02 
       6.295284960798e-05       2.752190639115e+02 
       7.635672464984e-05       3.313572527357e+02 
       8.995510218379e-05       3.879172346857e+02 
       1.037881792750e-04       4.451085509766e+02 
       1.178981588899e-04       5.031329396135e+02 
       1.323296509351e-04       5.621911365239e+02 
       1.471301026669e-04       6.224872261196e+02 
       1.623502630831e-04       6.842321663648e+02 
       1.780446857044e-04       7.476469643815e+02 
       1.942722737312e-04       8.129650823302e+02 
       2.110968708146e-04       8.804353738973e+02 
       2.285878994669e-04       9.503245023136e+02 
       2.468210472554e-04       1.022919549005e+03 
       2.658789981420e-04       1.098530616043e+03 
       2.858522023285e-04       1.177493410913e+03 
       3.068396723921e-04       1.260171778940e+03 
       3.289497859130e-04       1.346960100034e+03 
       3.523010647711e-04       1.438285415023e+03 
       3.770228884296e-04       1.534609093067e+03 
       4.032560825723e-04       1.636427824067e+03 
       4.311533055425e-04       1.744273599305e+03 
       4.608791338532e-04       1.858712316867e+03 
       4.926097263128e-04       1.980340553839e+03 
       5.265319271458e-04       2.109780005980e+03 
       5.628416567827e-04       2.247669052154e+03 
       6.017414415631e-04       2.394651048868e+03 
       6.434369587909e-04       2.551358931386e+03 
       6.881325299149e-04       2.718396138983e+03 
       7.360255881959e-04       2.896314143714e+03 
       7.873002779907e-04       3.085587454300e+03 
       8.421205003064e-04       3.286587522517e+03 
       9.006228800244e-04       3.499557559138e+03 
       9.629102586023e-04       3.724590612653e+03 
       1.029046371625e-03       3.961613507117e+03 
       1.099052320508e-03       4.210378755249e+03 
       1.172905281518e-03       4.470465796697e+03 
       1.250539634497e-03       4.741292207780e+03 
       1.331850389704e-03       5.022133534195e+03 
       1.416698510612e-03       5.312190260754e+03 
       1.504917533074e-03       5.610529131298e+03 
       1.596320800420e-03       5.916157438718e+03 
       1.690708669444e-03       6.228076310423e+03 
       1.787875165225e-03       6.545290683172e+03 
       1.887613730830e-03       6.866831190704e+03 
       1.989721890091e-03       7.191771169025e+03 
       2.094004788356e-03       7.519239223333e+03 
       2.200277682713e-03       7.848426645167e+03 
       2.308367517734e-03       8.178591897660e+03 
       2.418113751445e-03       8.509061748625e+03 
       2.529368598707e-03       8.839229073322e+03 
       2.641996845201e-03       9.168551985356e+03 
       2.755875362810e-03       9.496547000544e+03 
       2.870892432241e-03       9.822788972304e+03 
       2.986946954714e-03       1.014690022134e+04 
       3.103947613398e-03       1.046855339022e+04 
       3.221812027837e-03       1.078746200170e+04 
       3.340465930702e-03       1.110337577468e+04 
       3.459842385662e-03       1.141607866197e+04 
       3.579881057369e-03       1.172538347671e+04 
       3.700527538939e-03       1.203113142039e+04 
       3.821732738472e-03       1.233318544564e+04 
       3.943452323554e-03       1.263142896263e+04 
       4.065646221063e-03       1.292576648642e+04 
       4.188278168679e-03       1.321611524570e+04 
       4.311315313972e-03       1.350240887695e+04 
       4.434727856837e-03       1.378459345479e+04 
       4.558488731065e-03       1.406263181971e+04 
       4.682573321059e-03       1.433648552084e+04 
       4.806959209934e-03       1.460610976592e+04 
       4.931625955575e-03       1.487153045974e+04 
       5.056554891509e-03       1.513273536557e+04 
       5.181728949793e-03       1.538968343659e+04 
       5.307132503374e-03       1.564242550064e+04 
       5.432751225699e-03       1.589100354219e+04 
       5.558571965559e-03       1.613533352297e+04 
       5.684582635425e-03       1.637548355790e+04 
       5.810772111707e-03       1.661150053051e+04 
       5.937130145567e-03       1.684319363588e+04 
       6.063647283080e-03       1.707100020362e+04 
       6.190314793671e-03       1.729444761877e+04 
       6.317124605899e-03       1.751389434600e+04 
       6.444069249759e-03       1.772954375316e+04 
       6.571141804772e-03       1.794096951476e+04 
       6.698335853232e-03       1.814849944982e+04 
       6.825645438037e-03       1.835188823150e+04 
       6.953065024609e-03       1.855158015739e+04 
       7.080589466470e-03       1.874741112741e+04 
       7.208213974067e-03       1.893930603435e+04 
       7.335934086534e-03       1.912744854856e+04 
       7.463745646050e-03       1.931178308757e+04 
       7.591644774551e-03       1.949235940779e+04 
       7.719627852549e-03       1.966929086701e+04 
       7.847691499835e-03       1.984237421974e+04 
       7.975832557900e-03       2.001220219365e+04 
       8.104048073873e-03       2.017828559124e+04 
       8.232335285865e-03       2.034078833635e+04 
       8.360691609549e-03       2.049980013482e+04 
       8.489114625883e-03       2.065533067675e+04 
       8.617602069851e-03       2.080741443585e+04 
       8.746151820137e-03       2.095609359686e+04 
       8.874761889647e-03       2.110144853889e+04 
       9.003430416790e-03       2.124344843338e+04 
       9.132155657464e-03       2.138215647161e+04 
       9.260935977668e-03       2.151763440556e+04 
       9.389769846707e-03       2.164989653763e+04 
       9.518655830914e-03       2.177897442627e+04 
       9.647592587857e-03       2.190491754453e+04 
       9.776578860994e-03       2.202772434824e+04 
       9.905613474729e-03       2.214749448721e+04 
       1.003469532983e-02       2.226421566210e+04 
       1.016382339922e-02       2.237792894357e+04 
       1.029299672401e-02       2.248873990151e+04 
       1.042221440992e-02       2.259646071634e+04 
       1.055147562387e-02       2.270137413494e+04 
       1.068077959088e-02       2.280340089716e+04 
       1.081012559114e-02       2.290257764928e+04 
       1.093951295736e-02       2.299894453789e+04 
       1.106894107222e-02       2.309256713847e+04 
       1.119840936608e-02       2.318344127557e+04 
       1.132791731481e-02       2.327158632528e+04 
       1.145746443775e-02       2.335706298856e+04 
       1.158705029591e-02       2.343989275032e+04 
       1.171667449017e-02       2.352011096436e+04 
       1.184633665969e-02       2.359776772360e+04 
       1.197603648040e-02       2.367279224865e+04 
       1.210577366362e-02       2.374532115478e+04 
       1.223554795473e-02       2.381541009005e+04 
       1.236535913201e-02       2.388299971216e+04 
       1.249520700545e-02       2.394814895553e+04 
       1.262509141578e-02       2.401090740460e+04 
       1.275501223345e-02       2.407132515636e+04 
       1.288496935775e-02       2.412927532503e+04 
       1.301496271599e-02       2.418496808657e+04 
       1.314499226272e-02       2.423836772430e+04 
       1.327505797901e-02       2.428945453986e+04 
       1.340515987180e-02       2.433832916781e+04 
       1.353529797330e-02       2.438499984104e+04 
       1.366547234042e-02       2.442945539334e+04 
       1.379568305429e-02       2.447177319712e+04 
       1.392593021973e-02       2.451193576479e+04 
       1.405621396487e-02       2.455002574913e+04 
       1.418653444076e-02       2.458607588688e+04 
       1.431689182101e-02       2.461998037228e+04 
       1.444728630145e-02       2.465190162085e+04 
       1.457771809988e-02       2.468182447810e+04 
       1.470818745581e-02       2.470974006544e+04 
       1.483869463022e-02       2.473573382810e+04 
       1.496923990539e-02       2.475976988515e+04 
       1.509982358472e-02       2.478190293504e+04 
       1.523044599259e-02       2.480217291662e+04 
       1.536110747427e-02       2.482058613240e+04 
       1.549180839581e-02       2.483712534109e+04 
       1.562254914397e-02       2.485185046015e+04 
       1.575333012620e-02       2.486483340308e+04 
       1.588415177062e-02       2.487604118470e+04 
       1.601501452598e-02       2.488550560260e+04 
       1.614591886173e-02       2.489324854468e+04 
       1.627686526807e-02       2.489928102694e+04 
       1.640785425596e-02       2.490367642419e+04 
       1.653888635724e-02       2.490640421042e+04 
       1.666996212473e-02       2.490758291006e+04 
       1.680108213232e-02       2.490705151795e+04 
       1.693224697516e-02       2.490504936994e+04 
       1.706345726977e-02       2.490136684437e+04 
       1.719471365421e-02       2.489616314532e+04 
       1.732601678832e-02       2.488942442638e+04 
       1.745736735386e-02       2.488124832105e+04 
       1.758876605479e-02       2.487166870620e+04 
       1.772021361748e-02       2.486048836374e+04 
       1.785171079099e-02       2.484799122240e+04 
       1.798325834731e-02       2.483397761361e+04 
       1.811485708169e-02       2.481865680385e+04 
       1.824650781291e-02       2.480192057759e+04 
       1.837821138366e-02       2.478377869291e+04 
       1.850996866080e-02       2.476439951701e+04 
       1.864178053581e-02       2.474365188836e+04 
       1.877364792508e-02       2.472165521980e+04 
       1.890557177037e-02       2.469836739216e+04 
       1.903755303916e-02       2.467384030814e+04 
       1.916959272514e-02       2.464803218285e+04 
       1.930169184858e-02       2.462103609201e+04 
       1.943385145688e-02       2.459285067431e+04 
       1.956607262496e-02       2.456355490422e+04 
       1.969835645580e-02       2.453301898815e+04 
       1.983070408099e-02       2.450137744017e+04 
       1.996311666120e-02       2.446856624363e+04 
       2.009559538677e-02       2.443473712519e+04 
       2.022814147827e-02       2.439975180337e+04 
       2.036075618713e-02       2.436366138823e+04 
       2.049344079619e-02       2.432667913137e+04 
       2.062619662040e-02       2.428851932778e+04 
       2.075902500742e-02       2.424941287638e+04 
       2.089192733834e-02       2.420931380569e+04 
       2.102490502836e-02       2.416830812445e+04 
       2.115795952753e-02       2.412617739377e+04 
       2.129109232145e-02       2.408317168879e+04 
       2.142430493210e-02       2.403922442206e+04 
       2.155759891859e-02       2.399434113530e+04 
       2.169097587801e-02       2.394867171164e+04 
       2.182443744626e-02       2.390198882953e+04 
       2.195798529890e-02       2.385456972916e+04 
       2.209162115210e-02       2.380626120760e+04 
       2.222534676353e-02       2.375715525540e+04 
       2.235916393333e-02       2.370708343727e+04 
       2.249307450509e-02       2.365638306744e+04 
       2.262708036687e-02       2.360481764615e+04 
       2.276118345226e-02       2.355253085167e+04 
       2.289538574145e-02       2.349943605618e+04 
       2.302968926233e-02       2.344566328927e+04 
       2.316409609169e-02       2.339114779339e+04 
       2.329860835636e-02       2.333594668963e+04 
       2.343322823444e-02       2.328001712812e+04 
       2.356795795659e-02       2.322333975844e+04 
       2.370279980730e-02       2.316610750485e+04 
       2.383775612625e-02       2.310831169943e+04 
       2.397282930970e-02       2.304966164395e+04 
       2.410802181192e-02       2.299055635869e+04 
       2.424333614662e-02       2.293077820536e+04 
       2.437877488857e-02       2.287038507867e+04 
       2.451434067505e-02       2.280943612726e+04 
       2.465003620759e-02       2.274801551360e+04 
       2.478586425355e-02       2.268597975805e+04 
       2.492182764790e-02       2.262328265402e+04 
       2.505792929499e-02       2.256021640670e+04 
       2.519417217041e-02       2.249657579894e+04 
       2.533055932288e-02       2.243243053984e+04 
       2.546709387619e-02       2.236782658188e+04 
       2.560377903131e-02       2.230269624594e+04 
       2.574061806840e-02       2.223718528114e+04 
       2.587761434906e-02       2.217109694725e+04 
       2.601477131852e-02       2.210461276334e+04 
       2.615209250799e-02       2.203769736363e+04 
       2.628958153707e-02       2.197047139778e+04 
       2.642724211621e-02       2.190275583816e+04 
       2.656507804928e-02       2.183462140016e+04 
       2.670309323625e-02       2.176615988798e+04 
       2.684129167594e-02       2.169729174580e+04 
       2.697967746885e-02       2.162810524507e+04 
       2.711825482014e-02       2.155858872064e+04 
       2.725702804266e-02       2.148863852218e+04 
       2.739600156014e-02       2.141843159589e+04 
       2.753517991045e-02       2.134787946032e+04 
       2.767456774903e-02       2.127704792913e+04 
       2.781416985240e-02       2.120593018597e+04 
       2.795399112180e-02       2.113448033566e+04 
       2.809403658703e-02       2.106269935115e+04 
       2.823431141033e-02       2.099071640471e+04 
       2.837482089052e-02       2.091846908886e+04 
       2.851557046719e-02       2.084603123677e+04 
       2.865656572515e-02       2.077330767662e+04 
       2.879781239898e-02       2.070029583914e+04 
       2.893931637776e-02       2.062713526509e+04 
       2.908108371007e-02       2.055372218824e+04 
       2.922312060906e-02       2.048011256205e+04 
       2.936543345782e-02       2.040633667336e+04 
       2.950802881494e-02       2.033231322911e+04 
       2.965091342027e-02       2.025821450780e+04 
       2.979409420095e-02       2.018383161202e+04 
       2.993757827766e-02       2.010936073976e+04 
       3.008137297114e-02       2.003463180686e+04 
       3.022548580902e-02       1.995985445458e+04 
       3.036992453286e-02       1.988494060206e+04 
       3.051469710554e-02       1.980981205566e+04 
       3.065981171900e-02       1.973460622689e+04 
       3.080527680224e-02       1.965929928040e+04 
       3.095110102970e-02       1.958386820523e+04 
       3.109729333004e-02       1.950828197690e+04 
       3.124386289530e-02       1.943262944819e+04 
       3.139081919040e-02       1.935691552789e+04 
       3.153817196318e-02       1.928112979828e+04 
       3.168593125484e-02       1.920515790259e+04 
       3.183410741084e-02       1.912917030411e+04 
       3.198271109235e-02       1.905305226095e+04 
       3.213175328825e-02       1.897698311585e+04 
       3.228124532761e-02       1.890085010602e+04 
       3.243119889292e-02       1.882457710910e+04 
       3.258162603376e-02       1.874828191623e+04 
       3.273253918136e-02       1.867198854809e+04 
       3.288395116368e-02       1.859556705806e+04 
       3.303587522135e-02       1.851915277562e+04 
       3.318832502441e-02       1.844280579692e+04 
       3.334131468986e-02       1.836632380158e+04 
       3.349485880011e-02       1.828978588135e+04 
       3.364897242244e-02       1.821329617065e+04 
       3.380367112941e-02       1.813680654049e+04 
       3.395897102040e-02       1.806028164217e+04 
       3.411488874427e-02       1.798369817995e+04 
       3.427144152330e-02       1.790716531934e+04 
       3.442864717833e-02       1.783064740381e+04 
       3.458652415539e-02       1.775411658727e+04 
       3.474509155382e-02       1.767762326552e+04 
       3.490436915585e-02       1.760104374369e+04 
       3.506437745803e-02       1.752447429871e+04 
       3.522513770439e-02       1.744805216141e+04 
       3.538667192150e-02       1.737149457161e+04 
       3.554900295570e-02       1.729500213912e+04 
       3.571215451249e-02       1.721863111240e+04 
       3.587615119828e-02       1.714210653074e+04 
       3.604101856477e-02       1.706577292674e+04 
       3.620678315601e-02       1.698930398435e+04 
       3.637347255842e-02       1.691295851364e+04 
       3.654111545403e-02       1.683663921789e+04 
       3.670974167710e-02       1.676026235979e+04 
       3.687938227437e-02       1.668400128795e+04 
       3.705006956943e-02       1.660770681222e+04 
       3.722183723122e-02       1.653146951038e+04 
       3.739472034724e-02       1.645527468546e+04 
       3.756875550181e-02       1.637898672607e+04 
       3.774398085966e-02       1.630276790519e+04 
       3.792043625547e-02       1.622672987435e+04 
       3.809816328979e-02       1.615050401446e+04 
       3.827720543190e-02       1.607440981950e+04 
       3.845760813015e-02       1.599831526779e+04 
       3.863941893057e-02       1.592219226312e+04 
       3.882268760443e-02       1.584609988919e+04 
       3.900746628549e-02       1.577005642060e+04 
       3.919380961801e-02       1.569396292244e+04 
       3.938177491633e-02       1.561795832875e+04 
       3.957142233728e-02       1.554183562156e+04 
       3.976281506663e-02       1.546583490622e+04 
       3.995601952083e-02       1.538975982113e+04 
       4.015110556577e-02       1.531355486708e+04 
       4.034814675414e-02       1.523743658231e+04 
       4.054722058333e-02       1.516133809091e+04 
       4.074840877607e-02       1.508517239139e+04 
       4.095179758618e-02       1.500904957758e+04 
       4.115747813216e-02       1.493278999301e+04 
       4.136554676170e-02       1.485653983639e+04 
       4.157610545058e-02       1.478011732912e+04 
       4.178926223978e-02       1.470366105901e+04 
       4.200513171540e-02       1.462720117989e+04 
       4.222383553632e-02       1.455062548973e+04 
       4.244550301537e-02       1.447392844460e+04 
       4.267027176060e-02       1.439717073603e+04 
       4.289828838407e-02       1.432024221379e+04 
       4.312970928696e-02       1.424318607853e+04 
       4.336470153057e-02       1.416596209229e+04 
       4.360344380498e-02       1.408869003678e+04 
       4.384612750828e-02       1.401114729008e+04 
       4.409295795167e-02       1.393350401313e+04 
       4.434415570837e-02       1.385555475480e+04 
       4.459995812672e-02       1.377745651990e+04 
       4.486062103189e-02       1.369909396776e+04 
       4.512642064442e-02       1.362037719055e+04 
       4.539765574891e-02       1.354150516663e+04 
       4.567465015234e-02       1.346228122735e+04 
       4.595775547843e-02       1.338264622909e+04 
       4.624735435367e-02       1.330273558830e+04 
       4.654386405088e-02       1.322240736532e+04 
       4.684774066961e-02       1.314159027744e+04 
       4.715948394842e-02       1.306025557666e+04 
       4.747964282379e-02       1.297856305978e+04 
       4.780882187505e-02       1.289620163873e+04 
       4.814768882425e-02       1.281324343317e+04 
       4.849698329841e-02       1.272964131530e+04 
       4.885752710771e-02       1.264522962121e+04 
       4.923023635317e-02       1.256015515171e+04 
       4.961613575136e-02       1.247419400733e+04 
       5.001637565841e-02       1.238719790956e+04 
       5.043225239544e-02       1.229920983147e+04 
       5.086523262998e-02       1.221013491323e+04 
       5.131698276258e-02       1.211978293688e+04 
       5.178940451551e-02       1.202801312125e+04 
       5.228467823599e-02       1.193462247484e+04 
       5.280531582480e-02       1.183954010234e+04 
       5.335422570040e-02       1.174245599554e+04 
       5.393479282158e-02       1.164315130910e+04 
       5.455097751857e-02       1.154132639104e+04 
       5.520743769285e-02       1.143660720616e+04 
       5.590967973227e-02       1.132837870237e+04 
       5.666424399208e-02       1.121622862000e+04 
       5.747893033966e-02       1.109940822502e+04 
       5.836306687919e-02       1.097691378122e+04 
       5.932781827243e-02       1.084753029261e+04 
       6.038651484477e-02       1.070969627777e+04 
       6.155495275578e-02       1.056127429414e+04 
       6.285155837722e-02       1.039952496936e+04 
