# dimensionless total lensed [l(l+1)/2pi] C_l's
# for l=2 to 2500, i.e. number of multipoles equal to 2499
#
# -> if you prefer output in CAMB/HealPix/LensPix units/order, set 'format' to 'camb' in input file
# -> if you don't want to see such a header, set 'headers' to 'no' in input file
# -> for CMB lensing (phi), these are C_l^phi-phi for the lensing potential.
#    Remember the conversion factors:
#    C_l^dd (deflection) = l(l+1) C_l^phi-phi
#    C_l^gg (shear/convergence) = 1/4 (l(l+1))^2 C_l^phi-phi
#
# 1:l     2:TT                     3:EE                     4:TE                     5:BB                     6:phiphi                 7:TPhi                   8:Ephi               
    2       1.413391043779e-10       5.472207252511e-15       4.100992897986e-13       2.302135896488e-19       8.508798985681e-09       4.553492950701e-10      -2.145732083965e-12 
    3       1.336647663620e-10       8.120694256449e-15       4.863578541597e-13       4.605645095751e-19       5.219372736552e-09       3.243279817501e-10      -1.765000811512e-12 
    4       1.261835047431e-10       8.234538830493e-15       4.780303740237e-13       7.679087975944e-19       3.628919249242e-09       2.464382793799e-10      -1.293761292338e-12 
    5       1.204064588798e-10       6.513583594976e-15       4.267278231637e-13       1.152418854579e-18       2.709213921867e-09       1.950890108666e-10      -8.552688010566e-13 
    6       1.162947362030e-10       4.251017833060e-15       3.586662815400e-13       1.614301295963e-18       2.116581402488e-09       1.589615661970e-10      -4.904425006386e-13 
    7       1.135564408727e-10       2.425683930117e-15       2.905001614002e-13       2.153791514458e-18       1.707803499410e-09       1.324204263211e-10      -2.146843019366e-13 
    8       1.118283905525e-10       1.369687332123e-15       2.312469371466e-13       2.771147616648e-18       1.411395033251e-09       1.122280751426e-10      -2.832949478904e-14 
    9       1.108898123612e-10       9.296497998495e-16       1.851208488466e-13       3.466643954315e-18       1.188140453344e-09       9.640563545323e-11       7.806382631400e-14 
   10       1.105398861931e-10       7.904020089225e-16       1.532386594019e-13       4.240564484264e-18       1.015095299262e-09       8.378058134380e-11       1.201505037179e-13 
   11       1.106462479147e-10       7.166610846229e-16       1.346188031029e-13       5.093196194195e-18       8.558781821598e-10       7.390315286150e-11       1.163869302606e-13 
   12       1.111477607893e-10       6.257079845770e-16       1.268585058492e-13       6.024822826552e-18       7.478277728533e-10       6.545440803248e-11       8.583606088290e-14 
   13       1.119032691286e-10       5.361046196895e-16       1.269905362000e-13       7.035719117653e-18       6.591371121920e-10       5.847360026838e-11       4.440457745561e-14 
   14       1.128358864324e-10       4.855341556287e-16       1.321841670570e-13       8.126145746287e-18       5.853454608198e-10       5.240942987455e-11       4.077074036962e-15 
   15       1.139602440593e-10       4.838863253424e-16       1.400668405965e-13       9.296345155338e-18       5.232364996305e-10       4.731994136857e-11      -2.699582769646e-14 
   16       1.152843500626e-10       5.137147447723e-16       1.488040069855e-13       1.054653837311e-17       4.704320765745e-10       4.301493836849e-11      -4.533684234269e-14 
   17       1.166634614395e-10       5.536231178520e-16       1.573633688450e-13       1.187692291935e-17       4.251361928052e-10       3.929570664282e-11      -5.100746036668e-14 
   18       1.181576263458e-10       5.960601166489e-16       1.652660885054e-13       1.328767131909e-17       3.858220286920e-10       3.593845718032e-11      -4.678071729270e-14 
   19       1.197799314384e-10       6.493916417515e-16       1.725636844063e-13       1.477893383871e-17       3.518656516360e-10       3.294158797634e-11      -3.607944059803e-14 
   20       1.214497831355e-10       7.265194619140e-16       1.795164513314e-13       1.635083403426e-17       3.219589010653e-10       3.031153137781e-11      -2.331383019401e-14 
   21       1.231814173126e-10       8.324434804230e-16       1.865085292128e-13       1.800347860686e-17       2.956321519128e-10       2.801702569213e-11      -1.150508598776e-14 
   22       1.249857826269e-10       9.682255710751e-16       1.939581435220e-13       1.973695225307e-17       2.722554498932e-10       2.597363785793e-11      -3.262832008251e-15 
   23       1.268487058600e-10       1.130608460422e-15       2.019708158124e-13       2.155132994102e-17       2.515073232070e-10       2.413828872736e-11       5.778321584782e-16 
   24       1.287315001702e-10       1.314617178735e-15       2.104917350544e-13       2.344667171182e-17       2.329081065456e-10       2.246241320806e-11       8.709704143453e-17 
   25       1.306546222239e-10       1.520186841056e-15       2.193248406434e-13       2.542303757900e-17       2.162393251894e-10       2.094659828453e-11      -3.655074814535e-15 
   26       1.326385331340e-10       1.748375454074e-15       2.281498355460e-13       2.748048122163e-17       2.011996674378e-10       1.959024554380e-11      -8.954606726898e-15 
   27       1.346718021383e-10       1.998560629236e-15       2.365387952911e-13       2.961906328649e-17       1.876088012189e-10       1.837394987810e-11      -1.423399935331e-14 
   28       1.367251810922e-10       2.269593641408e-15       2.440172728895e-13       3.183884722864e-17       1.752323966330e-10       1.726396751765e-11      -1.797055172591e-14 
   29       1.388059984219e-10       2.561787254163e-15       2.503508904556e-13       3.413991606153e-17       1.640072275894e-10       1.624977396354e-11      -1.978737138707e-14 
   30       1.409222663759e-10       2.875903238961e-15       2.553673126156e-13       3.652236149574e-17       1.538127129232e-10       1.531747933649e-11      -1.970876748136e-14 
   31       1.430714925913e-10       3.213024240189e-15       2.589235118686e-13       3.898628378951e-17       1.444408703332e-10       1.444614559834e-11      -1.791608834740e-14 
   32       1.452560234499e-10       3.575577379200e-15       2.610513352023e-13       4.153180578191e-17       1.358433796744e-10       1.363544589214e-11      -1.496565273421e-14 
   33       1.474707468420e-10       3.966746631716e-15       2.618719787494e-13       4.415906669532e-17       1.279595704757e-10       1.288693237061e-11      -1.167878043776e-14 
   34       1.497043798818e-10       4.389603456773e-15       2.615349177616e-13       4.686821917945e-17       1.206792508949e-10       1.219767183093e-11      -8.927403208878e-15 
   35       1.519628778692e-10       4.844874388489e-15       2.601215971730e-13       4.965942598939e-17       1.139652017007e-10       1.156523375880e-11      -7.025966019408e-15 
   36       1.542525749235e-10       5.332375510152e-15       2.577116935375e-13       5.253286473072e-17       1.077635754350e-10       1.098353473514e-11      -6.133308634282e-15 
   37       1.565746409399e-10       5.851836589108e-15       2.543666877025e-13       5.548872170314e-17       1.019936799707e-10       1.044373734412e-11      -6.334299199607e-15 
   38       1.589299335301e-10       6.403800591081e-15       2.499814635827e-13       5.852716265882e-17       9.664062853156e-11       9.943553870025e-12      -7.372158459176e-15 
   39       1.613145430708e-10       6.989002256101e-15       2.443820764890e-13       6.164835410017e-17       9.168745974873e-11       9.480428482628e-12      -8.819523972923e-15 
   40       1.637176392298e-10       7.608122783347e-15       2.373626468262e-13       6.485247207973e-17       8.708695475618e-11       9.048706069381e-12      -1.014101945728e-14 
   41       1.661267582326e-10       8.261800794676e-15       2.287245100641e-13       6.813968767283e-17       8.277809381123e-11       8.641521798497e-12      -1.082508588196e-14 
   42       1.685473388989e-10       8.950677943278e-15       2.184142988211e-13       7.151011589600e-17       7.874821437972e-11       8.257848557255e-12      -1.084807669962e-14 
   43       1.709884230433e-10       9.675362252787e-15       2.064270972351e-13       7.496385142833e-17       7.498664489765e-11       7.897296316406e-12      -1.034934684744e-14 
   44       1.734569965309e-10       1.043641246568e-14       1.927695891514e-13       7.850098216576e-17       7.146605254056e-11       7.558039302292e-12      -9.507831368554e-15 
   45       1.759576126298e-10       1.123432122523e-14       1.774576737937e-13       8.212157500353e-17       6.815221151701e-11       7.237608548340e-12      -8.517215190092e-15 
   46       1.784917371503e-10       1.206946457938e-14       1.605069472730e-13       8.582562883478e-17       6.503991630781e-11       6.935829178922e-12      -7.496702351348e-15 
   47       1.810577676653e-10       1.294213308275e-14       1.419404693685e-13       8.961310698048e-17       6.212554864032e-11       6.652561247755e-12      -6.557820526218e-15 
   48       1.836508760800e-10       1.385254151487e-14       1.217920004954e-13       9.348394880346e-17       5.939624510912e-11       6.386802366987e-12      -5.830334630523e-15 
   49       1.862627432477e-10       1.480082553050e-14       1.001064704554e-13       9.743806860156e-17       5.682920963609e-11       6.136622541702e-12      -5.463171536790e-15 
   50       1.888849031865e-10       1.578709564326e-14       7.692169988148e-14       1.014753542088e-16       5.439858058762e-11       5.899745545071e-12      -5.575551530294e-15 
   51       1.915204615699e-10       1.681162422231e-14       5.220662793656e-14       1.055956649190e-16       5.209982469618e-11       5.675630267838e-12      -6.092599404824e-15 
   52       1.941750993556e-10       1.787470346377e-14       2.590712748497e-14       1.097988310856e-16       4.993077613813e-11       5.463841685069e-12      -6.866710283305e-15 
   53       1.968536479388e-10       1.897659185766e-14      -2.037116752087e-15       1.140846532699e-16       4.788433644695e-11       5.263419777420e-12      -7.722058079050e-15 
   54       1.995599936320e-10       2.011751353633e-14      -3.169302167272e-14       1.184529011209e-16       4.594814248659e-11       5.072844791082e-12      -8.453176998366e-15 
   55       2.022969779574e-10       2.129760327854e-14      -6.312197916934e-14       1.229033365392e-16       4.410833947421e-11       4.890498909189e-12      -8.876575324865e-15 
   56       2.050662883477e-10       2.251672701571e-14      -9.633900127181e-14       1.274357924750e-16       4.236275829794e-11       4.716265156752e-12      -9.003841340058e-15 
   57       2.078683729815e-10       2.377461559427e-14      -1.313441500168e-13       1.320501117423e-16       4.071043015699e-11       4.550264848100e-12      -8.909056020090e-15 
   58       2.107023489901e-10       2.507091250459e-14      -1.681341148712e-13       1.367461242790e-16       3.914759997492e-11       4.392380911684e-12      -8.680162033010e-15 
   59       2.135659067743e-10       2.640517111214e-14      -2.067021376329e-13       1.415236469723e-16       3.766755430997e-11       4.242242490735e-12      -8.419611434165e-15 
   60       2.164552143200e-10       2.777685188855e-14      -2.470379373316e-13       1.463824834842e-16       3.626044926541e-11       4.099209543905e-12      -8.245013361598e-15 
   61       2.193664342037e-10       2.918539786457e-14      -2.891304438560e-13       1.513224599843e-16       3.491604447095e-11       3.962577345046e-12      -8.260588615234e-15 
   62       2.223008889725e-10       3.063048704396e-14      -3.329768857489e-13       1.563435421146e-16       3.363301145434e-11       3.832278459671e-12      -8.462580792835e-15 
   63       2.252608906733e-10       3.211183199096e-14      -3.785756182835e-13       1.614457440885e-16       3.241141876617e-11       3.708311725301e-12      -8.813666391134e-15 
   64       2.282481868416e-10       3.362910632672e-14      -4.259235084797e-13       1.666290960462e-16       3.124993197840e-11       3.590528000991e-12      -9.270001353022e-15 
   65       2.312639159875e-10       3.518194444226e-14      -4.750159491240e-13       1.718936450201e-16       3.014573380212e-11       3.478621745203e-12      -9.780942487442e-15 
   66       2.343085630813e-10       3.676994121156e-14      -5.258468727881e-13       1.772394558990e-16       2.909444420533e-11       3.372122593698e-12      -1.028876888929e-14 
   67       2.373819150395e-10       3.839265170453e-14      -5.784087658497e-13       1.826666123936e-16       2.809004053078e-11       3.270386937418e-12      -1.072840335929e-14 
   68       2.404835954557e-10       4.004949120112e-14      -6.326898128480e-13       1.881752180627e-16       2.712646611877e-11       3.172766560307e-12      -1.104192175779e-14 
   69       2.436148941172e-10       4.173941234900e-14      -6.886646263006e-13       1.937653974784e-16       2.620301323533e-11       3.079173058190e-12      -1.122611774004e-14 
   70       2.467772299325e-10       4.346116177342e-14      -7.463016550584e-13       1.994372970319e-16       2.531989237461e-11       2.989613181639e-12      -1.129411971737e-14 
   71       2.499715753189e-10       4.521337120216e-14      -8.055658294615e-13       2.051910858409e-16       2.447660422060e-11       2.904018071169e-12      -1.126155351934e-14 
   72       2.531984265026e-10       4.699455462872e-14      -8.664185019661e-13       2.110269567171e-16       2.367190294916e-11       2.822239363513e-12      -1.114664202162e-14 
   73       2.564577738187e-10       4.880310547549e-14      -9.288173877705e-13       2.169451271318e-16       2.290375953011e-11       2.744045297892e-12      -1.097030477399e-14 
   74       2.597490720117e-10       5.063729375690e-14      -9.927165054424e-13       2.229458401829e-16       2.216932502934e-11       2.669116822285e-12      -1.075625762815e-14 
   75       2.630712105356e-10       5.249526324265e-14      -1.058066117545e-12       2.290293655611e-16       2.146489391080e-11       2.597043699702e-12      -1.053111236578e-14 
   76       2.664230471641e-10       5.437521401078e-14      -1.124817718621e-12       2.351959626462e-16       2.078682393259e-11       2.527428134374e-12      -1.031893815285e-14 
   77       2.698051868119e-10       5.627599481027e-14      -1.192940180486e-12       2.414457598905e-16       2.013457061902e-11       2.460226073561e-12      -1.012358071598e-14 
   78       2.732184746388e-10       5.819661406650e-14      -1.262406456916e-12       2.477788550936e-16       1.950814203730e-11       2.395461358814e-12      -9.943285006885e-15 
   79       2.766634436610e-10       6.013606502343e-14      -1.333188840895e-12       2.541953515090e-16       1.890717448766e-11       2.333122065814e-12      -9.775933634489e-15 
   80       2.801402966030e-10       6.209332670830e-14      -1.405259008738e-12       2.606953580335e-16       1.833091542115e-11       2.273158815423e-12      -9.619032928106e-15 
   81       2.836488877484e-10       6.406736489637e-14      -1.478588064222e-12       2.672789893973e-16       1.777820635745e-11       2.215483084742e-12      -9.469699000636e-15 
   82       2.871887047920e-10       6.605713307570e-14      -1.553146582708e-12       2.739463663536e-16       1.724746580270e-11       2.159965518163e-12      -9.324643811753e-15 
   83       2.907588506902e-10       6.806157341186e-14      -1.628904655274e-12       2.806976158692e-16       1.673667216727e-11       2.106434238422e-12      -9.180161231095e-15 
   84       2.943584453016e-10       7.007951538634e-14      -1.705828225461e-12       2.875328758026e-16       1.624385513277e-11       2.054717859124e-12      -9.033011977737e-15 
   85       2.979879465627e-10       7.210935029147e-14      -1.783867305114e-12       2.944523094163e-16       1.576870076489e-11       2.004786414772e-12      -8.883277526742e-15 
   86       3.016480160786e-10       7.414930429157e-14      -1.862965876801e-12       3.014560936302e-16       1.531118241212e-11       1.956630805976e-12      -8.731955967169e-15 
   87       3.053391078784e-10       7.619753520759e-14      -1.943065409578e-12       3.085444150074e-16       1.487106750431e-11       1.910219251408e-12      -8.580106344421e-15 
   88       3.090614573219e-10       7.825213176208e-14      -2.024104840807e-12       3.157174700202e-16       1.444790901586e-11       1.865496350133e-12      -8.428849830603e-15 
   89       3.128150700059e-10       8.031111282418e-14      -2.106020557976e-12       3.229754653149e-16       1.404103692889e-11       1.822382143955e-12      -8.279370894874e-15 
   90       3.165997106711e-10       8.237242665460e-14      -2.188746380514e-12       3.303186179776e-16       1.364954969643e-11       1.780771179754e-12      -8.132918473802e-15 
   91       3.204148921087e-10       8.443395015059e-14      -2.272213541612e-12       3.377471557993e-16       1.327230570553e-11       1.740531571822e-12      -7.990807141720e-15 
   92       3.242598640671e-10       8.649348809089e-14      -2.356350670039e-12       3.452613175412e-16       1.290791474049e-11       1.701504064209e-12      -7.854418281079e-15 
   93       3.281338786275e-10       8.854887151270e-14      -2.441086859413e-12       3.528613973934e-16       1.255506785219e-11       1.663541126573e-12      -7.724965076814e-15 
   94       3.320370560834e-10       9.059827140740e-14      -2.526361443558e-12       3.605478854236e-16       1.221360226020e-11       1.626633004564e-12      -7.602744526278e-15 
   95       3.359696293853e-10       9.263993102825e-14      -2.612115664586e-12       3.683213488402e-16       1.188358157352e-11       1.590798982002e-12      -7.487774571962e-15 
   96       3.399316720740e-10       9.467207155985e-14      -2.698289740316e-12       3.761823905425e-16       1.156496781566e-11       1.556048653624e-12      -7.380018209876e-15 
   97       3.439230909823e-10       9.669289272395e-14      -2.784822888475e-12       3.841316499919e-16       1.125761753306e-11       1.522381536959e-12      -7.279381417961e-15 
   98       3.479436189371e-10       9.870057338513e-14      -2.871653350898e-12       3.921698040845e-16       1.096127790350e-11       1.489786684204e-12      -7.185711084489e-15 
   99       3.519928074607e-10       1.006932721566e-13      -2.958718417722e-12       4.002975680224e-16       1.067558284452e-11       1.458242294090e-12      -7.098792936476e-15 
  100       3.560700194725e-10       1.026691280059e-13      -3.045954451589e-12       4.085156961864e-16       1.040004912185e-11       1.427715323761e-12      -7.018349468082e-15 
  101       3.601744219907e-10       1.046262608606e-13      -3.133296911845e-12       4.168249830075e-16       1.013407245781e-11       1.398161100643e-12      -6.944037869018e-15 
  102       3.643049788341e-10       1.065627722143e-13      -3.220680378737e-12       4.252262638391e-16       9.876923639724e-12       1.369522934320e-12      -6.875447952953e-15 
  103       3.684604433237e-10       1.084767457320e-13      -3.308038577613e-12       4.337204158289e-16       9.627744628358e-12       1.341731728402e-12      -6.812100085920e-15 
  104       3.726396223481e-10       1.103662780105e-13      -3.395304323556e-12       4.423082998616e-16       9.385743075926e-12       1.314722171968e-12      -6.753481343195e-15 
  105       3.768422249048e-10       1.122295742869e-13      -3.482409294653e-12       4.509905755764e-16       9.150814187875e-12       1.288484640835e-12      -6.699164004447e-15 
  106       3.810681151121e-10       1.140648668482e-13      -3.569284273068e-12       4.597678628705e-16       8.922996001609e-12       1.263019616447e-12      -6.648699278028e-15 
  107       3.853170468168e-10       1.158703869575e-13      -3.655859244916e-12       4.686407988183e-16       8.702276787748e-12       1.238321528949e-12      -6.601578870322e-15 
