# dimensionless total [l(l+1)/2pi] C_l's
# for l=2 to 3000, i.e. number of multipoles equal to 2999
#
# -> if you prefer output in CAMB/HealPix/LensPix units/order, set 'format' to 'camb' in input file
# -> if you don't want to see such a header, set 'headers' to 'no' in input file
# -> for CMB lensing (phi), these are C_l^phi-phi for the lensing potential.
#    Remember the conversion factors:
#    C_l^dd (deflection) = l(l+1) C_l^phi-phi
#    C_l^gg (shear/convergence) = 1/4 (l(l+1))^2 C_l^phi-phi
#
# 1:l     2:TT                     3:EE                     4:TE                     5:BB                     6:phiphi                 7:TPhi                   8:Ephi               
    2       1.413386030909e-10       5.471976744588e-15       4.100992581950e-13       0.000000000000e+00       8.508646302015e-09       4.553485464620e-10      -2.145732127300e-12 
    3       1.336638028273e-10       8.120233299564e-15       4.863579235934e-13       0.000000000000e+00       5.219188144627e-09       3.243269742982e-10      -1.765000911613e-12 
    4       1.261819222910e-10       8.233771507654e-15       4.780304341950e-13       0.000000000000e+00       3.628722757905e-09       2.464371527130e-10      -1.293761297161e-12 
    5       1.204040933649e-10       6.512431996605e-15       4.267278411838e-13       0.000000000000e+00       2.709014836763e-09       1.950880149865e-10      -8.552686517464e-13 
    6       1.162914243850e-10       4.249403497965e-15       3.586663822804e-13       0.000000000000e+00       2.116384364355e-09       1.589608425865e-10      -4.904422570879e-13 
    7       1.135520298666e-10       2.423529503781e-15       2.905004503517e-13       0.000000000000e+00       1.707610077048e-09       1.324198506650e-10      -2.146840931114e-13 
    8       1.118227765748e-10       1.366915580836e-15       2.312474959309e-13       0.000000000000e+00       1.411206726936e-09       1.122274725642e-10      -2.832944142523e-14 
    9       1.108829120198e-10       9.261826071196e-16       1.851218492511e-13       0.000000000000e+00       1.187957704094e-09       9.640496905978e-11       7.806369658467e-14 
   10       1.105315400479e-10       7.861605715254e-16       1.532402491809e-13       0.000000000000e+00       1.014917929215e-09       8.377989743675e-11       1.201502686721e-13 
   11       1.106363336332e-10       7.115666355768e-16       1.346210721784e-13       0.000000000000e+00       8.558489026547e-10       7.390287120345e-11       1.163867005819e-13 
   12       1.111361440461e-10       6.196819149567e-16       1.268616570993e-13       0.000000000000e+00       7.478008089351e-10       6.545409367969e-11       8.583589409535e-14 
   13       1.118898566544e-10       5.290678394353e-16       1.269948723251e-13       0.000000000000e+00       6.591121234476e-10       5.847327082802e-11       4.440446839150e-14 
   14       1.128205470798e-10       4.774067338600e-16       1.321898996074e-13       0.000000000000e+00       5.853221777574e-10       5.240912015860e-11       4.076988107038e-15 
   15       1.139428295293e-10       4.745880139836e-16       1.400741745954e-13       0.000000000000e+00       5.232147045815e-10       4.731963524930e-11      -2.699591606176e-14 
   16       1.152648210346e-10       5.031654644323e-16       1.488132308258e-13       0.000000000000e+00       4.704115904208e-10       4.301460455898e-11      -4.533692439895e-14 
   17       1.166417156550e-10       5.417426026779e-16       1.573748503221e-13       0.000000000000e+00       4.251168672785e-10       3.929536040427e-11      -5.100750225203e-14 
   18       1.181335581971e-10       5.827679587835e-16       1.652801525839e-13       0.000000000000e+00       3.858037854176e-10       3.593812166116e-11      -4.678069333462e-14 
   19       1.197534401820e-10       6.346073934512e-16       1.725806802425e-13       0.000000000000e+00       3.518482920592e-10       3.294126607610e-11      -3.607935958523e-14 
   20       1.214207676761e-10       7.101626433746e-16       1.795367846790e-13       0.000000000000e+00       3.219423680677e-10       3.031120421719e-11      -2.331374104684e-14 
   21       1.231498003699e-10       8.144333526879e-16       1.865326261528e-13       0.000000000000e+00       2.956163947590e-10       2.801668844160e-11      -1.150503336711e-14 
   22       1.249515120011e-10       9.484811988132e-16       1.939864356134e-13       0.000000000000e+00       2.722403934693e-10       2.597330708853e-11      -3.262835568673e-15 
   23       1.268116992690e-10       1.109049511909e-15       2.020037424973e-13       0.000000000000e+00       2.514928978705e-10       2.413795751746e-11       5.777825498297e-16 
   24       1.286916339786e-10       1.291164086257e-15       2.105297471001e-13       0.000000000000e+00       2.328942653356e-10       2.246204579706e-11       8.703981901388e-17 
   25       1.306118014094e-10       1.494759638761e-15       2.193684231483e-13       0.000000000000e+00       2.162260243801e-10       2.094620073167e-11      -3.655111147002e-15 
   26       1.325927084089e-10       1.720893574484e-15       2.281995147648e-13       0.000000000000e+00       2.011868661658e-10       1.958987842420e-11      -8.954616460907e-15 
   27       1.346229118001e-10       1.968944219761e-15       2.365951222686e-13       0.000000000000e+00       1.875964622144e-10       1.837363926750e-11      -1.423398449238e-14 
   28       1.366731345793e-10       2.237763956928e-15       2.440808125283e-13       0.000000000000e+00       1.752204895914e-10       1.726368099680e-11      -1.797051821171e-14 
   29       1.387507050037e-10       2.527665913391e-15       2.504221973491e-13       0.000000000000e+00       1.639957226080e-10       1.624947867770e-11      -1.978733060935e-14 
   30       1.408636455551e-10       2.839411977695e-15       2.554469161923e-13       0.000000000000e+00       1.538015823951e-10       1.531716388584e-11      -1.970873757309e-14 
   31       1.430094744018e-10       3.174084947807e-15       2.590119187222e-13       0.000000000000e+00       1.444300921907e-10       1.444582121988e-11      -1.791609116542e-14 
   32       1.451905396428e-10       3.534112412287e-15       2.611490791951e-13       0.000000000000e+00       1.358329323131e-10       1.363512699379e-11      -1.496569589246e-14 
   33       1.474017277911e-10       3.922678956244e-15       2.619796419493e-13       0.000000000000e+00       1.279494335845e-10       1.288663004876e-11      -1.167884815833e-14 
   34       1.496317541570e-10       4.342856684594e-15       2.616531239710e-13       0.000000000000e+00       1.206694074333e-10       1.219739271785e-11      -8.927459021993e-15 
   35       1.518865730764e-10       4.795372684921e-15       2.602509505426e-13       0.000000000000e+00       1.139556351598e-10       1.156497921222e-11      -7.025984638324e-15 
   36       1.541725176818e-10       5.280043585781e-15       2.578527521555e-13       0.000000000000e+00       1.077542705906e-10       1.098329964737e-11      -6.133289219234e-15 
   37       1.564907587324e-10       5.796599727767e-15       2.545199617756e-13       0.000000000000e+00       1.019846240280e-10       1.044351059006e-11      -6.334264547791e-15 
   38       1.588421641775e-10       6.345584687805e-15       2.501474511895e-13       0.000000000000e+00       9.663180860964e-11       9.943324998644e-12      -7.372130827460e-15 
   39       1.612228392848e-10       6.927733847525e-15       2.445612738185e-13       0.000000000000e+00       9.167886307989e-11       9.480190245991e-12      -8.819516614920e-15 
   40       1.636219713487e-10       7.543729074886e-15       2.375555485019e-13       0.000000000000e+00       8.707857002350e-11       9.048455362426e-12      -1.014103421038e-14 
   41       1.660271117253e-10       8.194209735618e-15       2.289316013642e-13       0.000000000000e+00       8.276991179150e-11       8.641259643924e-12      -1.082511362376e-14 
   42       1.684436937153e-10       8.879818465351e-15       2.186360201447e-13       0.000000000000e+00       7.874022593320e-11       8.257576697612e-12      -1.084810792167e-14 
   43       1.708807454986e-10       9.601164397788e-15       2.066638274730e-13       0.000000000000e+00       7.497884095581e-11       7.897016202472e-12      -1.034937513515e-14 
   44       1.733452358858e-10       1.035880747224e-14       1.930216360450e-13       0.000000000000e+00       7.145842490398e-11       7.557751999369e-12      -9.507854182636e-15 
   45       1.758417027659e-10       1.115324159594e-14       1.777252674704e-13       0.000000000000e+00       6.814475320434e-11       7.237314755639e-12      -8.517233646095e-15 
   46       1.783716158124e-10       1.198484407515e-14       1.607902455188e-13       0.000000000000e+00       6.503262023796e-11       6.935529642684e-12      -7.496717523584e-15 
   47       1.809333830503e-10       1.285390677317e-14       1.422395538960e-13       0.000000000000e+00       6.211840759810e-11       6.652256888122e-12      -6.557832269936e-15 
   48       1.835221886909e-10       1.376064585075e-14       1.221068696429e-13       0.000000000000e+00       5.938925222123e-11       6.386494296830e-12      -5.830341351582e-15 
   49       1.861297278541e-10       1.470519841819e-14       1.004370316390e-13       0.000000000000e+00       5.682235888502e-11       6.136312086291e-12      -5.463169948889e-15 
   50       1.887475477366e-10       1.568767659299e-14       7.726776465426e-14       0.000000000000e+00       5.439186698791e-11       5.899434229312e-12      -5.575536918399e-15 
   51       1.913787557376e-10       1.670835473903e-14       5.256791627662e-14       0.000000000000e+00       5.209324326234e-11       5.675319693830e-12      -6.092567597998e-15 
   52       1.940290308219e-10       1.776752726414e-14       2.628326493258e-14       0.000000000000e+00       4.992432179839e-11       5.463533491034e-12      -6.866658360635e-15 
   53       1.967032015401e-10       1.886545502522e-14      -1.646604703046e-15       0.000000000000e+00       4.787800432346e-11       5.263115626625e-12      -7.721984609175e-15 
   54       1.994051504656e-10       2.000236468169e-14      -3.128871529604e-14       0.000000000000e+00       4.594192819589e-11       5.072546360044e-12      -8.453082290977e-15 
   55       2.021377156183e-10       2.117839360741e-14      -6.270457035947e-14       0.000000000000e+00       4.410223922094e-11       4.890207801637e-12      -8.876461407724e-15 
   56       2.049025849876e-10       2.239341008208e-14      -9.590929957145e-14       0.000000000000e+00       4.235676824202e-11       4.715982574926e-12      -9.003711005329e-15 
   57       2.077002084202e-10       2.364714729906e-14      -1.309030887109e-13       0.000000000000e+00       4.070454636232e-11       4.549991445175e-12      -8.908912591120e-15 
   58       2.105297047398e-10       2.493925118587e-14      -1.676827571771e-13       0.000000000000e+00       3.914181858018e-11       4.392116708932e-12      -8.680009398083e-15 
   59       2.133887660664e-10       2.626927763662e-14      -2.062416830039e-13       0.000000000000e+00       3.766187171081e-11       4.241986791103e-12      -8.419454081066e-15 
   60       2.162735621362e-10       2.763668974428e-14      -2.465697278745e-13       0.000000000000e+00       3.625486230809e-11       4.098960842016e-12      -8.244856412983e-15 
   61       2.191802576198e-10       2.904093315614e-14      -2.886559651138e-13       0.000000000000e+00       3.491055048484e-11       3.962333444180e-12      -8.260437694898e-15 
   62       2.221101785213e-10       3.048168816650e-14      -3.324977488457e-13       0.000000000000e+00       3.362760773347e-11       3.832037272088e-12      -8.462441338480e-15 
   63       2.250656409238e-10       3.195866955516e-14      -3.780935567066e-13       0.000000000000e+00       3.240610249774e-11       3.708071536953e-12      -8.813543397271e-15 
   64       2.280483967010e-10       3.347155317439e-14      -4.254403801727e-13       0.000000000000e+00       3.124470033848e-11       3.590287542234e-12      -9.269899268320e-15 
   65       2.310595890156e-10       3.501997566008e-14      -4.745337385111e-13       0.000000000000e+00       3.014058405726e-11       3.478380264617e-12      -9.780865107492e-15 
   66       2.340997078186e-10       3.660353414289e-14      -5.253676927303e-13       0.000000000000e+00       2.908937382010e-11       3.371879935001e-12      -1.028871924479e-14 
   67       2.371685453476e-10       3.822178595936e-14      -5.779348595310e-13       0.000000000000e+00       2.808504728120e-11       3.270143619480e-12      -1.072838359965e-14 
   68       2.402657305620e-10       3.987414855260e-14      -6.322235564955e-13       0.000000000000e+00       2.712154809946e-11       3.172523713763e-12      -1.104193306675e-14 
   69       2.433925576692e-10       4.155957626717e-14      -6.882085347501e-13       0.000000000000e+00       2.619816850990e-11       3.078931891166e-12      -1.122616036522e-14 
   70       2.465504498644e-10       4.327681724455e-14      -7.458583849303e-13       0.000000000000e+00       2.531511892082e-11       2.989374826075e-12      -1.129419290087e-14 
   71       2.497403840148e-10       4.502450464838e-14      -8.051381814408e-13       0.000000000000e+00       2.447189998418e-11       2.903783566578e-12      -1.126165539013e-14 
   72       2.529628609648e-10       4.680115382303e-14      -8.660094230365e-13       0.000000000000e+00       2.366726590071e-11       2.822009640082e-12      -1.114676948437e-14 
   73       2.562178758413e-10       4.860515945193e-14      -9.284299734035e-13       0.000000000000e+00       2.289918772497e-11       2.743821158944e-12      -1.097045339413e-14 
   74       2.595048883592e-10       5.043479271608e-14      -9.923540017399e-13       0.000000000000e+00       2.216481667050e-11       2.668898926090e-12      -1.075642151343e-14 
   75       2.628227931270e-10       5.228819845247e-14      -1.057731923337e-12       0.000000000000e+00       2.146044741487e-11       2.596832540639e-12      -1.053128404404e-14 
   76       2.661704528618e-10       5.416357771737e-14      -1.124515390148e-12       0.000000000000e+00       2.078243792832e-11       2.527224033142e-12      -1.031910888176e-14 
   77       2.695484759341e-10       5.605978019190e-14      -1.192673444493e-12       0.000000000000e+00       2.013024372268e-11       2.460029197855e-12      -1.012374218730e-14 
   78       2.729577105235e-10       5.797581514385e-14      -1.262179216794e-12       0.000000000000e+00       1.950387281580e-11       2.395271717939e-12      -9.943429905042e-15 
   79       2.763986926072e-10       5.991067655118e-14      -1.333005180333e-12       0.000000000000e+00       1.890296149011e-11       2.332939495660e-12      -9.776055787361e-15 
   80       2.798716278076e-10       6.186334406236e-14      -1.405123195384e-12       0.000000000000e+00       1.832675721198e-11       2.272982962991e-12      -9.619127463136e-15 
   81       2.833763732411e-10       6.383278395666e-14      -1.478504553351e-12       0.000000000000e+00       1.777410155114e-11       2.215313392221e-12      -9.469762506200e-15 
   82       2.869124193660e-10       6.581795010451e-14      -1.553120020903e-12       0.000000000000e+00       1.724341310003e-11       2.159801206556e-12      -9.324674503818e-15 
   83       2.904788718311e-10       6.781778492778e-14      -1.628939884108e-12       0.000000000000e+00       1.673267039321e-11       2.106274290730e-12      -9.180159125163e-15 
   84       2.940748534992e-10       6.983111811778e-14      -1.705930277054e-12       0.000000000000e+00       1.623990323454e-11       2.054561062192e-12      -9.032978781007e-15 
   85       2.977008268553e-10       7.185634139379e-14      -1.784041371742e-12       0.000000000000e+00       1.576479767942e-11       2.004631589298e-12      -8.883215626076e-15 
   86       3.013574585648e-10       7.389168133641e-14      -1.863217302139e-12       0.000000000000e+00       1.530732704524e-11       1.956476878875e-12      -8.731868180351e-15 
   87       3.050452078632e-10       7.593529608904e-14      -1.943399687583e-12       0.000000000000e+00       1.486725875034e-11       1.910065272366e-12      -8.579995943629e-15 
   88       3.087643154665e-10       7.798527459990e-14      -2.024527614465e-12       0.000000000000e+00       1.444414577804e-11       1.865341508716e-12      -8.428720566379e-15 
   89       3.125147924809e-10       8.003963586392e-14      -2.106537617922e-12       0.000000000000e+00       1.403731814073e-11       1.822225787251e-12      -8.279227020580e-15 
   90       3.162964093132e-10       8.209632816478e-14      -2.189363663525e-12       0.000000000000e+00       1.364587434392e-11       1.780612830566e-12      -8.132764770575e-15 
   91       3.201086845807e-10       8.415322831680e-14      -2.272937128969e-12       0.000000000000e+00       1.326867285026e-11       1.740370947410e-12      -7.990648943914e-15 
   92       3.239508740214e-10       8.620814090692e-14      -2.357186785762e-12       0.000000000000e+00       1.290432354366e-11       1.701341095568e-12      -7.854261502203e-15 
   93       3.278222355617e-10       8.825889630648e-14      -2.442041861635e-12       0.000000000000e+00       1.255151756840e-11       1.663375942459e-12      -7.724816037767e-15 
   94       3.317228942121e-10       9.030366321509e-14      -2.527441794394e-12       0.000000000000e+00       1.221009213358e-11       1.626465802497e-12      -7.602609155412e-15 
   95       3.356530873533e-10       9.234068194059e-14      -2.613327918019e-12       0.000000000000e+00       1.188011081844e-11       1.590629996217e-12      -7.487658139308e-15 
   96       3.396128929669e-10       9.436817040731e-14      -2.699640536316e-12       0.000000000000e+00       1.156153562761e-11       1.555878157369e-12      -7.379925248952e-15 
   97       3.436022223365e-10       9.638432475390e-14      -2.786318946888e-12       0.000000000000e+00       1.125422310005e-11       1.522209844846e-12      -7.279315645345e-15 
   98       3.476208127485e-10       9.838731993104e-14      -2.873301465119e-12       0.000000000000e+00       1.095792041787e-11       1.489614154606e-12      -7.185675317170e-15 
   99       3.516682201930e-10       1.003753102992e-13      -2.960525448149e-12       0.000000000000e+00       1.067226151525e-11       1.458069331602e-12      -7.098789006971e-15 
  100       3.557438120645e-10       1.023464302264e-13      -3.047927318852e-12       0.000000000000e+00       1.039676318729e-11       1.427542381708e-12      -7.018378137325e-15 
  101       3.598467598627e-10       1.042987946860e-13      -3.135442589817e-12       0.000000000000e+00       1.013082119890e-11       1.397988683644e-12      -6.944098737027e-15 
  102       3.639760318937e-10       1.062304998544e-13      -3.223005887322e-12       0.000000000000e+00       9.873706393659e-12       1.369351600902e-12      -6.875539367263e-15 
  103       3.681303859703e-10       1.081396237088e-13      -3.310550975313e-12       0.000000000000e+00       9.624560802736e-12       1.341562093675e-12      -6.812219047786e-15 
  104       3.723086337169e-10       1.100242567724e-13      -3.398010705941e-12       0.000000000000e+00       9.382592142740e-12       1.314554882063e-12      -6.753623698432e-15 
  105       3.765104898655e-10       1.118825977921e-13      -3.485316811905e-12       0.000000000000e+00       9.147695613070e-12       1.288320258202e-12      -6.699325536732e-15 
  106       3.807358246135e-10       1.137128721601e-13      -3.572400130628e-12       0.000000000000e+00       8.919909231200e-12       1.262858582299e-12      -6.648876018062e-15 
  107       3.849843980027e-10       1.155133038382e-13      -3.659190698084e-12       0.000000000000e+00       8.699221253979e-12       1.238164152658e-12      -6.601767129930e-15 
