# Matter power spectrum P(k) at redshift z=0
# for k=1.05281e-05 to 7.52753 h/Mpc,
# number of wavenumbers equal to 698
#    1:k (h/Mpc)              2:P (Mpc/h)^3        
       1.052808673426e-05       4.927703069943e+01 
       2.352858924850e-05       1.068021794846e+02 
       3.657561012704e-05       1.632554194022e+02 
       4.970490954058e-05       2.192744544094e+02 
       6.295284960798e-05       2.752191242346e+02 
       7.635672464984e-05       3.313574113407e+02 
       8.995510218379e-05       3.879174534995e+02 
       1.037881792750e-04       4.451088112640e+02 
       1.178981588898e-04       5.031333162230e+02 
       1.323296509351e-04       5.621916710098e+02 
       1.471301026669e-04       6.224879559527e+02 
       1.623502630831e-04       6.841556444280e+02 
       1.780446857044e-04       7.475553618872e+02 
       1.942722737312e-04       8.128565604589e+02 
       2.110968708146e-04       8.803078656497e+02 
       2.285878994669e-04       9.501757034780e+02 
       2.468210472554e-04       1.022746893935e+03 
       2.658789981420e-04       1.098331223129e+03 
       2.858522023285e-04       1.177264039697e+03 
       3.068396723921e-04       1.259908771617e+03 
       3.289497859130e-04       1.346659313141e+03 
       3.523010647711e-04       1.437942143764e+03 
       3.770228884296e-04       1.534217984226e+03 
       4.032560825723e-04       1.635982776826e+03 
       4.311533055424e-04       1.743767644510e+03 
       4.608791338532e-04       1.858137497520e+03 
       4.926097263127e-04       1.979687781760e+03 
       5.265319271457e-04       2.109038883230e+03 
       5.628416567826e-04       2.246827735307e+03 
       6.017414415630e-04       2.393696047430e+03 
       6.434369587909e-04       2.550274925076e+03 
       6.881325299149e-04       2.717165816340e+03 
       7.360255881959e-04       2.894918020855e+03 
       7.873002779906e-04       3.084003744262e+03 
       8.421205003063e-04       3.284792047166e+03 
       9.006228800243e-04       3.497523688424e+03 
       9.629102586022e-04       3.722289303796e+03 
       1.029046371625e-03       3.959013424764e+03 
       1.099052320508e-03       4.207446404726e+03 
       1.172905281517e-03       4.467165883067e+03 
       1.250539634497e-03       4.737587899773e+03 
       1.331850389704e-03       5.017986891879e+03 
       1.416698510612e-03       5.307495029183e+03 
       1.504917533074e-03       5.605199493178e+03 
       1.596320800420e-03       5.910134960702e+03 
       1.690708669443e-03       6.221301480856e+03 
       1.787875165224e-03       6.537703147810e+03 
       1.887613730830e-03       6.858370268321e+03 
       1.989721890091e-03       7.182376035583e+03 
       2.094004788355e-03       7.508849014936e+03 
       2.200277682713e-03       7.836980994015e+03 
       2.308367517734e-03       8.166031092334e+03 
       2.418113751444e-03       8.495326701697e+03 
       2.529368598707e-03       8.824261842129e+03 
       2.641996845201e-03       9.152294678365e+03 
       2.755875362810e-03       9.478944570732e+03 
       2.870892432241e-03       9.803785445473e+03 
       2.986946954714e-03       1.012644352380e+04 
       3.103947613397e-03       1.044659150705e+04 
       3.221812027837e-03       1.076394318390e+04 
       3.340465930702e-03       1.107825075313e+04 
       3.459842385662e-03       1.138929937246e+04 
       3.579881057368e-03       1.169690397005e+04 
       3.700527538938e-03       1.200090574954e+04 
       3.821732738472e-03       1.230116958987e+04 
       3.943452323553e-03       1.259758180646e+04 
       4.065646221062e-03       1.289004588752e+04 
       4.188278168678e-03       1.317848197645e+04 
       4.311315313972e-03       1.346282528886e+04 
       4.434727856837e-03       1.374302403106e+04 
       4.558488731065e-03       1.401903657535e+04 
       4.682573321059e-03       1.429083405470e+04 
       4.806959209934e-03       1.455836782644e+04 
       4.931625955574e-03       1.482166860669e+04 
       5.056554891509e-03       1.508071129366e+04 
       5.181728949792e-03       1.533548295659e+04 
       5.307132503374e-03       1.558600923383e+04 
       5.432751225699e-03       1.583234952584e+04 
       5.558571965559e-03       1.607443280206e+04 
       5.684582635425e-03       1.631167361252e+04 
       5.810772111706e-03       1.654532916279e+04 
       5.937130145567e-03       1.677451742093e+04 
       6.063647283080e-03       1.699999635538e+04 
       6.190314793671e-03       1.722121277482e+04 
       6.317124605899e-03       1.743832334289e+04 
       6.444069249759e-03       1.765107264928e+04 
       6.571141804772e-03       1.786009059156e+04 
       6.698335853232e-03       1.806556090532e+04 
       6.825645438037e-03       1.826676110531e+04 
       6.953065024609e-03       1.846381639653e+04 
       7.080589466469e-03       1.865737788505e+04 
       7.208213974067e-03       1.884674627694e+04 
       7.335934086534e-03       1.903240331972e+04 
       7.463745646050e-03       1.921427001553e+04 
       7.591644774551e-03       1.939243022276e+04 
       7.719627852548e-03       1.956675714301e+04 
       7.847691499835e-03       1.973732510112e+04 
       7.975832557899e-03       1.990455330007e+04 
       8.104048073872e-03       2.006780820899e+04 
       8.232335285864e-03       2.022865925149e+04 
       8.360691609549e-03       2.038509607260e+04 
       8.489114625883e-03       2.053810475269e+04 
       8.617602069850e-03       2.068765473555e+04 
       8.746151820136e-03       2.083387499419e+04 
       8.874761889646e-03       2.097666987643e+04 
       9.003430416790e-03       2.111616993554e+04 
       9.132155657463e-03       2.125234215943e+04 
       9.260935977667e-03       2.138521291817e+04 
       9.389769846707e-03       2.151495513533e+04 
       9.518655830913e-03       2.164153244583e+04 
       9.647592587856e-03       2.176496025057e+04 
       9.776578860994e-03       2.188521712558e+04 
       9.905613474728e-03       2.200252721646e+04 
       1.003469532983e-02       2.211673185003e+04 
       1.016382339922e-02       2.222795396635e+04 
       1.029299672401e-02       2.233623837078e+04 
       1.042221440992e-02       2.244156105853e+04 
       1.055147562387e-02       2.254399655982e+04 
       1.068077959088e-02       2.264362134658e+04 
       1.081012559114e-02       2.274035891454e+04 
       1.093951295736e-02       2.283439555472e+04 
       1.106894107222e-02       2.292552551279e+04 
       1.119840936608e-02       2.301314599865e+04 
       1.132791731481e-02       2.309974423624e+04 
       1.145746443775e-02       2.318289170013e+04 
       1.158705029591e-02       2.326337238235e+04 
       1.171667449017e-02       2.334124498519e+04 
       1.184633665969e-02       2.341657856810e+04 
       1.197603648040e-02       2.348931050055e+04 
       1.210577366362e-02       2.355971045301e+04 
       1.223554795473e-02       2.362734652828e+04 
       1.236535913201e-02       2.369277052206e+04 
       1.249520700545e-02       2.375561921088e+04 
       1.262509141578e-02       2.381615970982e+04 
       1.275501223345e-02       2.387434719473e+04 
       1.288496935775e-02       2.393025805354e+04 
       1.301496271599e-02       2.398366841862e+04 
       1.314499226272e-02       2.403410134857e+04 
       1.327505797900e-02       2.408398972539e+04 
       1.340515987179e-02       2.413070856035e+04 
       1.353529797330e-02       2.417545082759e+04 
       1.366547234042e-02       2.421787513987e+04 
       1.379568305429e-02       2.425820879576e+04 
       1.392593021973e-02       2.429554522313e+04 
       1.405621396487e-02       2.433252960652e+04 
       1.418653444076e-02       2.436543828813e+04 
       1.431689182101e-02       2.439868998593e+04 
       1.444728630145e-02       2.442861555633e+04 
       1.457771809988e-02       2.445663715603e+04 
       1.470818745581e-02       2.448274361501e+04 
       1.483869463022e-02       2.450705534361e+04 
       1.496923990539e-02       2.452915103797e+04 
       1.509982358471e-02       2.454954780563e+04 
       1.523044599259e-02       2.456813586910e+04 
       1.536110747427e-02       2.458477721243e+04 
       1.549180839581e-02       2.459964351208e+04 
       1.562254914397e-02       2.461212244530e+04 
       1.575333012620e-02       2.462287038317e+04 
       1.588415177062e-02       2.463299526079e+04 
       1.601501452597e-02       2.464093373981e+04 
       1.614591886173e-02       2.464780228608e+04 
       1.627686526807e-02       2.465175015231e+04 
       1.640785425596e-02       2.465528992680e+04 
       1.653888635724e-02       2.465655713525e+04 
       1.666996212473e-02       2.465556810661e+04 
       1.680108213232e-02       2.465361682417e+04 
       1.693224697516e-02       2.465096154882e+04 
       1.706345726977e-02       2.464524638283e+04 
       1.719471365421e-02       2.463941833773e+04 
       1.732601678832e-02       2.463065458032e+04 
       1.745736735386e-02       2.462224010320e+04 
       1.758876605479e-02       2.461029364825e+04 
       1.772021361748e-02       2.459890397905e+04 
       1.785171079099e-02       2.458434001162e+04 
       1.798325834731e-02       2.456982762680e+04 
       1.811485708168e-02       2.455365246099e+04 
       1.824650781291e-02       2.453511518837e+04 
       1.837821138366e-02       2.451592047191e+04 
       1.850996866080e-02       2.449587170205e+04 
       1.864178053581e-02       2.447411688884e+04 
       1.877364792508e-02       2.445151827648e+04 
       1.890557177037e-02       2.442778939493e+04 
       1.903755303916e-02       2.440224604110e+04 
       1.916959272514e-02       2.437579975928e+04 
       1.930169184858e-02       2.434700082966e+04 
       1.943385145688e-02       2.431809882483e+04 
       1.956607262495e-02       2.428825690893e+04 
       1.969835645580e-02       2.425684071085e+04 
       1.983070408099e-02       2.422470255661e+04 
       1.996311666120e-02       2.419128990125e+04 
       2.009559538677e-02       2.415671297783e+04 
       2.022814147827e-02       2.412127029818e+04 
       2.036075618713e-02       2.408466519968e+04 
       2.049344079619e-02       2.404714190323e+04 
       2.062619662039e-02       2.400837989390e+04 
       2.075902500741e-02       2.396895278237e+04 
       2.089192733834e-02       2.392849368644e+04 
       2.102490502836e-02       2.388679778551e+04 
       2.115795952753e-02       2.384458457618e+04 
       2.129109232145e-02       2.380138645821e+04 
       2.142430493210e-02       2.375709157547e+04 
       2.155759891859e-02       2.371239832575e+04 
       2.169097587801e-02       2.366675517179e+04 
       2.182443744626e-02       2.361933809428e+04 
       2.195798529890e-02       2.357166949141e+04 
       2.209162115210e-02       2.352322431971e+04 
       2.222534676353e-02       2.347424366915e+04 
       2.235916393333e-02       2.342399777507e+04 
       2.249307450508e-02       2.337331265260e+04 
       2.262708036687e-02       2.332167099350e+04 
       2.276118345226e-02       2.327003309374e+04 
       2.289538574144e-02       2.321696353484e+04 
       2.302968926233e-02       2.316318878874e+04 
       2.316409609169e-02       2.310885254924e+04 
       2.329860835636e-02       2.305330097232e+04 
       2.343322823444e-02       2.299758022309e+04 
       2.356795795659e-02       2.294138470200e+04 
       2.370279980730e-02       2.288478568077e+04 
       2.383775612625e-02       2.282676553729e+04 
       2.397282930970e-02       2.276884641780e+04 
       2.410802181192e-02       2.270998390027e+04 
       2.424333614662e-02       2.265018993001e+04 
       2.437877488857e-02       2.259057154109e+04 
       2.451434067505e-02       2.253013140806e+04 
       2.465003620759e-02       2.246868465028e+04 
       2.478586425355e-02       2.240756968984e+04 
       2.492182764789e-02       2.234502504689e+04 
       2.505792929499e-02       2.228252626370e+04 
       2.519417217041e-02       2.221986030420e+04 
       2.533055932288e-02       2.215635076551e+04 
       2.546709387619e-02       2.209248404378e+04 
       2.560377903131e-02       2.202792081630e+04 
       2.574061806840e-02       2.196265511095e+04 
       2.587761434905e-02       2.189735800223e+04 
       2.601477131851e-02       2.183165256262e+04 
       2.615209250799e-02       2.176557427598e+04 
       2.628958153707e-02       2.169909060679e+04 
       2.642724211621e-02       2.163222325399e+04 
       2.656507804928e-02       2.156504150314e+04 
       2.670309323625e-02       2.149746858906e+04 
       2.684129167594e-02       2.142951982349e+04 
       2.697967746885e-02       2.136123132790e+04 
       2.711825482014e-02       2.129293859916e+04 
       2.725702804266e-02       2.122379882648e+04 
       2.739600156014e-02       2.115464501901e+04 
       2.753517991045e-02       2.108519124216e+04 
       2.767456774903e-02       2.101578824360e+04 
       2.781416985240e-02       2.094536786865e+04 
       2.795399112180e-02       2.087502518792e+04 
       2.809403658703e-02       2.080448688572e+04 
       2.823431141033e-02       2.073371406277e+04 
       2.837482089051e-02       2.066271053959e+04 
       2.851557046719e-02       2.059170851246e+04 
       2.865656572515e-02       2.052002135518e+04 
       2.879781239897e-02       2.044856349131e+04 
       2.893931637776e-02       2.037669304909e+04 
       2.908108371007e-02       2.030469502065e+04 
       2.922312060905e-02       2.023224586136e+04 
       2.936543345782e-02       2.016016158749e+04 
       2.950802881494e-02       2.008729376696e+04 
       2.965091342027e-02       2.001457339780e+04 
       2.979409420095e-02       1.994184111045e+04 
       2.993757827765e-02       1.986883688851e+04 
       3.008137297114e-02       1.979566922766e+04 
       3.022548580902e-02       1.972235192510e+04 
       3.036992453286e-02       1.964894755227e+04 
       3.051469710554e-02       1.957562925945e+04 
       3.065981171900e-02       1.950198239750e+04 
       3.080527680224e-02       1.942831620297e+04 
       3.095110102969e-02       1.935452354889e+04 
       3.109729333004e-02       1.928051259385e+04 
       3.124386289530e-02       1.920662668051e+04 
       3.139081919040e-02       1.913261777706e+04 
       3.153817196318e-02       1.905843535595e+04 
       3.168593125484e-02       1.898446383977e+04 
       3.183410741084e-02       1.891019664988e+04 
       3.198271109235e-02       1.883591625019e+04 
       3.213175328824e-02       1.876163676810e+04 
       3.228124532761e-02       1.868742351245e+04 
       3.243119889292e-02       1.861307098066e+04 
       3.258162603376e-02       1.853866031200e+04 
       3.273253918136e-02       1.846427361481e+04 
       3.288395116367e-02       1.838971492739e+04 
       3.303587522134e-02       1.831538303583e+04 
       3.318832502441e-02       1.824094305810e+04 
       3.334131468985e-02       1.816648779488e+04 
       3.349485880011e-02       1.809216456194e+04 
       3.364897242244e-02       1.801756851331e+04 
       3.380367112940e-02       1.794327815080e+04 
       3.395897102039e-02       1.786872969415e+04 
       3.411488874427e-02       1.779444468949e+04 
       3.427144152330e-02       1.771999138207e+04 
       3.442864717832e-02       1.764581349395e+04 
       3.458652415539e-02       1.757130831276e+04 
       3.474509155382e-02       1.749696188584e+04 
       3.490436915585e-02       1.742262531657e+04 
       3.506437745803e-02       1.734832938669e+04 
       3.522513770439e-02       1.727413742242e+04 
       3.538667192150e-02       1.720015448498e+04 
       3.554900295570e-02       1.712582124026e+04 
       3.571215451249e-02       1.705184586065e+04 
       3.587615119828e-02       1.697765866978e+04 
       3.604101856477e-02       1.690368943161e+04 
       3.620678315601e-02       1.682983175000e+04 
       3.637347255842e-02       1.675573657336e+04 
       3.654111545403e-02       1.668192335963e+04 
       3.670974167709e-02       1.660791132871e+04 
       3.687938227437e-02       1.653425449391e+04 
       3.705006956943e-02       1.646037971434e+04 
       3.722183723121e-02       1.638699953955e+04 
       3.739472034724e-02       1.631311678980e+04 
       3.756875550181e-02       1.623962159532e+04 
       3.774398085966e-02       1.616601475551e+04 
       3.792043625546e-02       1.609248096259e+04 
       3.809816328979e-02       1.601900846525e+04 
       3.827720543190e-02       1.594550766219e+04 
       3.845760813014e-02       1.587221153375e+04 
       3.863941893057e-02       1.579885073362e+04 
       3.882268760443e-02       1.572556328899e+04 
       3.900746628549e-02       1.565232393363e+04 
       3.919380961801e-02       1.557903887961e+04 
       3.938177491632e-02       1.550597928140e+04 
       3.957142233728e-02       1.543276018936e+04 
       3.976281506663e-02       1.535955691135e+04 
       3.995601952082e-02       1.528637903191e+04 
       4.015110556577e-02       1.521328587007e+04 
       4.034814675414e-02       1.514021659029e+04 
       4.054722058333e-02       1.506729409314e+04 
       4.074840877607e-02       1.499396305116e+04 
       4.095179758618e-02       1.492090360157e+04 
       4.115747813216e-02       1.484780452514e+04 
       4.136554676170e-02       1.477489099146e+04 
       4.157610545058e-02       1.470151365557e+04 
       4.178926223978e-02       1.462859871876e+04 
       4.200513171540e-02       1.455521739614e+04 
       4.222383553632e-02       1.448188307287e+04 
       4.244550301537e-02       1.440883325592e+04 
       4.267027176060e-02       1.433544765929e+04 
       4.289828838407e-02       1.426175919880e+04 
       4.312970928695e-02       1.418820523069e+04 
       4.336470153056e-02       1.411486900259e+04 
       4.360344380498e-02       1.404091504255e+04 
       4.384612750828e-02       1.396706105786e+04 
       4.409295795167e-02       1.389330023824e+04 
       4.434415570837e-02       1.381898105641e+04 
       4.459995812671e-02       1.374456269255e+04 
       4.486062103189e-02       1.367027064313e+04 
       4.512642064442e-02       1.359550458580e+04 
       4.539765574891e-02       1.352050394322e+04 
       4.567465015234e-02       1.344542902635e+04 
       4.595775547843e-02       1.336978848161e+04 
       4.624735435367e-02       1.329410055141e+04 
       4.654386405087e-02       1.321821008585e+04 
       4.684774066961e-02       1.314163527116e+04 
       4.715948394841e-02       1.306498874262e+04 
       4.747964282379e-02       1.298783923354e+04 
       4.780882187504e-02       1.291008607877e+04 
       4.814768882425e-02       1.283192516228e+04 
       4.849698329840e-02       1.275325730965e+04 
       4.885752710771e-02       1.267389887610e+04 
       4.923023635317e-02       1.259404056876e+04 
       4.961613575136e-02       1.251288121475e+04 
       5.001637565841e-02       1.243178352692e+04 
       5.043225239544e-02       1.234921526896e+04 
       5.086523262998e-02       1.226579306183e+04 
       5.131698276257e-02       1.218136831249e+04 
       5.178940451550e-02       1.209561194039e+04 
       5.228467823599e-02       1.200868390429e+04 
       5.280531582479e-02       1.192077464957e+04 
       5.335422570040e-02       1.183002271065e+04 
       5.393479282158e-02       1.173849198643e+04 
       5.455097751857e-02       1.164403404892e+04 
       5.520743769284e-02       1.154710268168e+04 
       5.590967973227e-02       1.144739798891e+04 
       5.666424399208e-02       1.134397722159e+04 
       5.747893033965e-02       1.123658495693e+04 
       5.836306687918e-02       1.112395742588e+04 
       5.932781827243e-02       1.100525208136e+04 
       6.038651484477e-02       1.087819947902e+04 
       6.155495275578e-02       1.074197588412e+04 
       6.285155837722e-02       1.059323490540e+04 
