# Matter power spectrum P(k) at redshift z=0
# for k=1.05281e-05 to 15.0075 h/Mpc,
# number of wavenumbers equal to 1878
#    1:k (h/Mpc)              2:P (Mpc/h)^3        
       1.052808673426e-05       4.927703069943e+01 
       2.352858924850e-05       1.068021794846e+02 
       3.657561012704e-05       1.632554194022e+02 
       4.970490954058e-05       2.192744544094e+02 
       6.295284960798e-05       2.752191242346e+02 
       7.635672464984e-05       3.313574113407e+02 
       8.995510218379e-05       3.879174534995e+02 
       1.037881792750e-04       4.451088112640e+02 
       1.178981588898e-04       5.031333162230e+02 
       1.323296509351e-04       5.621916710098e+02 
       1.471301026669e-04       6.224879559527e+02 
       1.623502630831e-04       6.842331774007e+02 
       1.780446857044e-04       7.476482494634e+02 
       1.942722737312e-04       8.129667451819e+02 
       2.110968708146e-04       8.804375024443e+02 
       2.285878994669e-04       9.503271947262e+02 
       2.468210472554e-04       1.022922930102e+03 
       2.658789981420e-04       1.098534829930e+03 
       2.858522023285e-04       1.177498632962e+03 
       3.068396723921e-04       1.260178221136e+03 
       3.289497859130e-04       1.346968016976e+03 
       3.523010647711e-04       1.438295114621e+03 
       3.770228884296e-04       1.534620949636e+03 
       4.032560825723e-04       1.636442294941e+03 
       4.311533055424e-04       1.744291237274e+03 
       4.608791338532e-04       1.858733802833e+03 
       4.926097263127e-04       1.980366725813e+03 
       5.265319271457e-04       2.109811873530e+03 
       5.628416567826e-04       2.247707873851e+03 
       6.017414415630e-04       2.394698361944e+03 
       6.434369587909e-04       2.551416614307e+03 
       6.881325299149e-04       2.718466502952e+03 
       7.360255881959e-04       2.896400002786e+03 
       7.873002779906e-04       3.085692232745e+03 
       8.421205003063e-04       3.286715377360e+03 
       9.006228800243e-04       3.499713487328e+03 
       9.629102586022e-04       3.724780600365e+03 
       1.029046371625e-03       3.961844689305e+03 
       1.099052320508e-03       4.210659508660e+03 
       1.172905281517e-03       4.470805975954e+03 
       1.250539634497e-03       4.741703206885e+03 
       1.331850389704e-03       5.022628441986e+03 
       1.416698510612e-03       5.312716299510e+03 
       1.504917533074e-03       5.611056079439e+03 
       1.596320800420e-03       5.916684195314e+03 
       1.690708669443e-03       6.228602034264e+03 
       1.787875165224e-03       6.545814653047e+03 
       1.887613730830e-03       6.867352968505e+03 
       1.989721890091e-03       7.192290461122e+03 
       2.094004788355e-03       7.519755695518e+03 
       2.200277682713e-03       7.848940206643e+03 
       2.308367517734e-03       8.179102644841e+03 
       2.418113751444e-03       8.509569749454e+03 
       2.529368598707e-03       8.839734734411e+03 
       2.641996845201e-03       9.169054832277e+03 
       2.755875362810e-03       9.497048370576e+03 
       2.870892432241e-03       9.823288158390e+03 
       2.986946954714e-03       1.014739923743e+04 
       3.103947613397e-03       1.046905307995e+04 
       3.221812027837e-03       1.078796220629e+04 
       3.340465930702e-03       1.110387752162e+04 
       3.459842385662e-03       1.141658287004e+04 
       3.579881057368e-03       1.172589185419e+04 
       3.700527538938e-03       1.203164434562e+04 
       3.821732738472e-03       1.233370389038e+04 
       3.943452323553e-03       1.263195547557e+04 
       4.065646221062e-03       1.292630126359e+04 
       4.188278168678e-03       1.321666008157e+04 
       4.311315313972e-03       1.350296584155e+04 
       4.434727856837e-03       1.378516545973e+04 
       4.558488731065e-03       1.406321602885e+04 
       4.682573321059e-03       1.433708742666e+04 
       4.806959209934e-03       1.460672967373e+04 
       4.931625955574e-03       1.487217240922e+04 
       5.056554891509e-03       1.513338926101e+04 
       5.181728949792e-03       1.539036606190e+04 
       5.307132503374e-03       1.564312735374e+04 
       5.432751225699e-03       1.589173157928e+04 
       5.558571965559e-03       1.613610625123e+04 
       5.684582635425e-03       1.637566234217e+04 
       5.810772111706e-03       1.661166093301e+04 
       5.937130145567e-03       1.684321522761e+04 
       6.063647283080e-03       1.707108523027e+04 
       6.190314793671e-03       1.729471424749e+04 
       6.317124605899e-03       1.751425845030e+04 
       6.444069249759e-03       1.772946008999e+04 
       6.571141804772e-03       1.794095079921e+04 
       6.698335853232e-03       1.814891413719e+04 
       6.825645438037e-03       1.835262307743e+04 
       6.953065024609e-03       1.855220224180e+04 
       7.080589466469e-03       1.874830486683e+04 
       7.208213974067e-03       1.894022705212e+04 
       7.335934086534e-03       1.912845189069e+04 
       7.463745646050e-03       1.931289890730e+04 
       7.591644774551e-03       1.949365133976e+04 
       7.719627852548e-03       1.967058063417e+04 
       7.847691499835e-03       1.984376044430e+04 
       7.975832557899e-03       2.001361130076e+04 
       8.104048073872e-03       2.017949503951e+04 
       8.232335285864e-03       2.034298921662e+04 
       8.360691609549e-03       2.050207073473e+04 
       8.489114625883e-03       2.065773042425e+04 
       8.617602069850e-03       2.080993656246e+04 
       8.746151820136e-03       2.095881794477e+04 
       8.874761889646e-03       2.110427736008e+04 
       9.003430416790e-03       2.124644522735e+04 
       9.132155657463e-03       2.138528737782e+04 
       9.260935977667e-03       2.152082940700e+04 
       9.389769846707e-03       2.165324446006e+04 
       9.518655830913e-03       2.178249502970e+04 
       9.647592587856e-03       2.190859571934e+04 
       9.776578860994e-03       2.203152405538e+04 
       9.905613474728e-03       2.215150486938e+04 
       1.003469532983e-02       2.226837750429e+04 
       1.016382339922e-02       2.238226490902e+04 
       1.029299672401e-02       2.249321136720e+04 
       1.042221440992e-02       2.260119185535e+04 
       1.055147562387e-02       2.270628062134e+04 
       1.068077959088e-02       2.280855389743e+04 
       1.081012559114e-02       2.290793378375e+04 
       1.093951295736e-02       2.300460720700e+04 
       1.106894107222e-02       2.309836600970e+04 
       1.119840936608e-02       2.318860173934e+04 
       1.132791731481e-02       2.327782080024e+04 
       1.145746443775e-02       2.336357443758e+04 
       1.158705029591e-02       2.344665216971e+04 
       1.171667449017e-02       2.352711243100e+04 
       1.184633665969e-02       2.360502412289e+04 
       1.197603648040e-02       2.368032335410e+04 
       1.210577366362e-02       2.375328139046e+04 
       1.223554795473e-02       2.382346188792e+04 
       1.236535913201e-02       2.389142073926e+04 
       1.249520700545e-02       2.395679084288e+04 
       1.262509141578e-02       2.401984099472e+04 
       1.275501223345e-02       2.408052530481e+04 
       1.288496935775e-02       2.413892019615e+04 
       1.301496271599e-02       2.419479907112e+04 
       1.314499226272e-02       2.424767979910e+04 
       1.327505797900e-02       2.430001750572e+04 
       1.340515987179e-02       2.434916188807e+04 
       1.353529797330e-02       2.439631656725e+04 
       1.366547234042e-02       2.444113626205e+04 
       1.379568305429e-02       2.448384985622e+04 
       1.392593021973e-02       2.452354117110e+04 
       1.405621396487e-02       2.456288109789e+04 
       1.418653444076e-02       2.459810815661e+04 
       1.431689182101e-02       2.463368508219e+04 
       1.444728630145e-02       2.466590498332e+04 
       1.457771809988e-02       2.469620388140e+04 
       1.470818745581e-02       2.472456995313e+04 
       1.483869463022e-02       2.475112434455e+04 
       1.496923990539e-02       2.477544075051e+04 
       1.509982358471e-02       2.479804122540e+04 
       1.523044599259e-02       2.481881432288e+04 
       1.536110747427e-02       2.483762000991e+04 
       1.549180839581e-02       2.485463131421e+04 
       1.562254914397e-02       2.486922860439e+04 
       1.575333012620e-02       2.488207495241e+04 
       1.588415177062e-02       2.489429033882e+04 
       1.601501452597e-02       2.490429342592e+04 
       1.614591886173e-02       2.491321290122e+04 
       1.627686526807e-02       2.491917628771e+04 
       1.640785425596e-02       2.492472469079e+04 
       1.653888635724e-02       2.492797159151e+04 
       1.666996212473e-02       2.492893288795e+04 
       1.680108213232e-02       2.492891739366e+04 
       1.693224697516e-02       2.492818620789e+04 
       1.706345726977e-02       2.492435468284e+04 
       1.719471365421e-02       2.492040497776e+04 
       1.732601678832e-02       2.491347950346e+04 
       1.745736735386e-02       2.490690315278e+04 
       1.758876605479e-02       2.489674632210e+04 
       1.772021361748e-02       2.488714820874e+04 
       1.785171079099e-02       2.487433064455e+04 
       1.798325834731e-02       2.486155977567e+04 
       1.811485708168e-02       2.484709924045e+04 
       1.824650781291e-02       2.483024022288e+04 
       1.837821138366e-02       2.481270893779e+04 
       1.850996866080e-02       2.479430602033e+04 
       1.864178053581e-02       2.477416800759e+04 
       1.877364792508e-02       2.475316813984e+04 
       1.890557177037e-02       2.473101588919e+04 
       1.903755303916e-02       2.470701753835e+04 
       1.916959272514e-02       2.468209649988e+04 
       1.930169184858e-02       2.465478303755e+04 
       1.943385145688e-02       2.462735698384e+04 
       1.956607262495e-02       2.459896991291e+04 
       1.969835645580e-02       2.456897838222e+04 
       1.983070408099e-02       2.453824623072e+04 
       1.996311666120e-02       2.450621294133e+04 
       2.009559538677e-02       2.447298997389e+04 
       2.022814147827e-02       2.443887979234e+04 
       2.036075618713e-02       2.440358125078e+04 
       2.049344079619e-02       2.436734179296e+04 
       2.062619662039e-02       2.432983600886e+04 
       2.075902500741e-02       2.429164557117e+04 
       2.089192733834e-02       2.425239803244e+04 
       2.102490502836e-02       2.421188527516e+04 
       2.115795952753e-02       2.417083718379e+04 
       2.129109232145e-02       2.412877902852e+04 
       2.142430493210e-02       2.408559701633e+04 
       2.155759891859e-02       2.404199984283e+04 
       2.169097587801e-02       2.399742747154e+04 
       2.182443744626e-02       2.395104301429e+04 
       2.195798529890e-02       2.390439187431e+04 
       2.209162115210e-02       2.385694081414e+04 
       2.222534676353e-02       2.380893448807e+04 
       2.235916393333e-02       2.375963156152e+04 
       2.249307450508e-02       2.370987074948e+04 
       2.262708036687e-02       2.365912643975e+04 
       2.276118345226e-02       2.360837399650e+04 
       2.289538574144e-02       2.355615500822e+04 
       2.302968926233e-02       2.350320729120e+04 
       2.316409609169e-02       2.344967669600e+04 
       2.329860835636e-02       2.339489859297e+04 
       2.343322823444e-02       2.333993597793e+04 
       2.356795795659e-02       2.328447818975e+04 
       2.370279980730e-02       2.322859757082e+04 
       2.383775612625e-02       2.317125947282e+04 
       2.397282930970e-02       2.311401115088e+04 
       2.410802181192e-02       2.305579066108e+04 
       2.424333614662e-02       2.299660991971e+04 
       2.437877488857e-02       2.293759454587e+04 
       2.451434067505e-02       2.287773024263e+04 
       2.465003620759e-02       2.281682875736e+04 
       2.478586425355e-02       2.275625136238e+04 
       2.492182764789e-02       2.269420613277e+04 
       2.505792929499e-02       2.263219397523e+04 
       2.519417217041e-02       2.256999815294e+04 
       2.533055932288e-02       2.250693032948e+04 
       2.546709387619e-02       2.244348530581e+04 
       2.560377903131e-02       2.237931765178e+04 
       2.574061806840e-02       2.231442112600e+04 
       2.587761434905e-02       2.224947868973e+04 
       2.601477131851e-02       2.218410662662e+04 
       2.615209250799e-02       2.211834097784e+04 
       2.628958153707e-02       2.205214853856e+04 
       2.642724211621e-02       2.198555132006e+04 
       2.656507804928e-02       2.191861980344e+04 
       2.670309323625e-02       2.185127574410e+04 
       2.684129167594e-02       2.178353465750e+04 
       2.697967746885e-02       2.171543326267e+04 
       2.711825482014e-02       2.164731327901e+04 
       2.725702804266e-02       2.157831604393e+04 
       2.739600156014e-02       2.150929012854e+04 
       2.753517991045e-02       2.143994418213e+04 
       2.767456774903e-02       2.137063559500e+04 
       2.781416985240e-02       2.130027575618e+04 
       2.795399112180e-02       2.122998059721e+04 
       2.809403658703e-02       2.115947155472e+04 
       2.823431141033e-02       2.108870894489e+04 
       2.837482089051e-02       2.101769662476e+04 
       2.851557046719e-02       2.094667131059e+04 
       2.865656572515e-02       2.087493286425e+04 
       2.879781239897e-02       2.080341365985e+04 
       2.893931637776e-02       2.073145914306e+04 
       2.908108371007e-02       2.065935991474e+04 
       2.922312060905e-02       2.058678592768e+04 
       2.936543345782e-02       2.051456955054e+04 
       2.950802881494e-02       2.044153922226e+04 
       2.965091342027e-02       2.036864468742e+04 
       2.979409420095e-02       2.029572338514e+04 
       2.993757827765e-02       2.022250998665e+04 
       3.008137297114e-02       2.014911517430e+04 
       3.022548580902e-02       2.007555301119e+04 
       3.036992453286e-02       2.000188735298e+04 
       3.051469710554e-02       1.992829496399e+04 
       3.065981171900e-02       1.985435255190e+04 
       3.080527680224e-02       1.978037579757e+04 
       3.095110102969e-02       1.970625532822e+04 
       3.109729333004e-02       1.963189734247e+04 
       3.124386289530e-02       1.955765246668e+04 
       3.139081919040e-02       1.948326741652e+04 
       3.153817196318e-02       1.940869056820e+04 
       3.168593125484e-02       1.933431461921e+04 
       3.183410741084e-02       1.925962208929e+04 
       3.198271109235e-02       1.918490153370e+04 
       3.213175328824e-02       1.911016740757e+04 
       3.228124532761e-02       1.903548647588e+04 
       3.243119889292e-02       1.896064874659e+04 
       3.258162603376e-02       1.888573713862e+04 
       3.273253918136e-02       1.881083559082e+04 
       3.288395116367e-02       1.873574379621e+04 
       3.303587522134e-02       1.866086945074e+04 
       3.318832502441e-02       1.858587022070e+04 
       3.334131468985e-02       1.851084099397e+04 
       3.349485880011e-02       1.843593244415e+04 
       3.364897242244e-02       1.836073056006e+04 
       3.380367112940e-02       1.828582701801e+04 
       3.395897102039e-02       1.821064519519e+04 
       3.411488874427e-02       1.813571860988e+04 
       3.427144152330e-02       1.806060560364e+04 
       3.442864717832e-02       1.798576018360e+04 
       3.458652415539e-02       1.791056566512e+04 
       3.474509155382e-02       1.783551941002e+04 
       3.490436915585e-02       1.776046907952e+04 
       3.506437745803e-02       1.768544620109e+04 
       3.522513770439e-02       1.761051562981e+04 
       3.538667192150e-02       1.753578497340e+04 
       3.554900295570e-02       1.746068159732e+04 
       3.571215451249e-02       1.738593058807e+04 
       3.587615119828e-02       1.731094865357e+04 
       3.604101856477e-02       1.723617590928e+04 
       3.620678315601e-02       1.716150344840e+04 
       3.637347255842e-02       1.708657374662e+04 
       3.654111545403e-02       1.701191892589e+04 
       3.670974167709e-02       1.693704647366e+04 
       3.687938227437e-02       1.686252403222e+04 
       3.705006956943e-02       1.678776436361e+04 
       3.722183723121e-02       1.671349769494e+04 
       3.739472034724e-02       1.663870207767e+04 
       3.756875550181e-02       1.656428983033e+04 
       3.774398085966e-02       1.648974929481e+04 
       3.792043625546e-02       1.641526980240e+04 
       3.809816328979e-02       1.634083932528e+04 
       3.827720543190e-02       1.626636599418e+04 
       3.845760813014e-02       1.619208874268e+04 
       3.863941893057e-02       1.611773135859e+04 
       3.882268760443e-02       1.604343540510e+04 
       3.900746628549e-02       1.596917497559e+04 
       3.919380961801e-02       1.589485384609e+04 
       3.938177491632e-02       1.582075022905e+04 
       3.957142233728e-02       1.574646913219e+04 
       3.976281506663e-02       1.567219041309e+04 
       3.995601952082e-02       1.559792389486e+04 
       4.015110556577e-02       1.552373045741e+04 
       4.034814675414e-02       1.544954764454e+04 
       4.054722058333e-02       1.537550162712e+04 
       4.074840877607e-02       1.530102215924e+04 
       4.095179758618e-02       1.522680757218e+04 
       4.115747813216e-02       1.515253825753e+04 
       4.136554676170e-02       1.507844545814e+04 
       4.157610545058e-02       1.500386208460e+04 
       4.178926223978e-02       1.492973955896e+04 
       4.200513171540e-02       1.485512357977e+04 
       4.222383553632e-02       1.478054152007e+04 
       4.244550301537e-02       1.470623743489e+04 
       4.267027176060e-02       1.463157372837e+04 
       4.289828838407e-02       1.455658402726e+04 
       4.312970928695e-02       1.448171780083e+04 
       4.336470153056e-02       1.440706059056e+04 
       4.360344380498e-02       1.433175313069e+04 
       4.384612750828e-02       1.425653325434e+04 
       4.409295795167e-02       1.418139384264e+04 
       4.434415570837e-02       1.410566446520e+04 
       4.459995812671e-02       1.402981718955e+04 
       4.486062103189e-02       1.395408382287e+04 
       4.512642064442e-02       1.387784632913e+04 
       4.539765574891e-02       1.380135071018e+04 
       4.567465015234e-02       1.372476162173e+04 
       4.595775547843e-02       1.364757280547e+04 
       4.624735435367e-02       1.357031733212e+04 
       4.654386405087e-02       1.349283498876e+04 
       4.684774066961e-02       1.341462894182e+04 
       4.715948394841e-02       1.333632951435e+04 
       4.747964282379e-02       1.325749173794e+04 
       4.780882187504e-02       1.317801098887e+04 
       4.814768882425e-02       1.309808812383e+04 
       4.849698329840e-02       1.301761985743e+04 
       4.885752710771e-02       1.293641562225e+04 
       4.923023635317e-02       1.285467058222e+04 
       4.961613575136e-02       1.277155690901e+04 
       5.001637565841e-02       1.268847799961e+04 
       5.043225239544e-02       1.260385134772e+04 
       5.086523262998e-02       1.251831029536e+04 
       5.131698276257e-02       1.243169851349e+04 
       5.178940451550e-02       1.234367277975e+04 
       5.228467823599e-02       1.225439389240e+04 
       5.280531582479e-02       1.216405349503e+04 
       5.335422570040e-02       1.207072331157e+04 
       5.393479282158e-02       1.197652713960e+04 
       5.455097751857e-02       1.187923689911e+04 
       5.520743769284e-02       1.177930985456e+04 
       5.590967973227e-02       1.167642213619e+04 
       5.666424399208e-02       1.156958177282e+04 
       5.747893033965e-02       1.145850239601e+04 
       5.836306687918e-02       1.134184892434e+04 
       5.932781827243e-02       1.121871348531e+04 
       6.038651484477e-02       1.108670141021e+04 
       6.155495275578e-02       1.094489959560e+04 
       6.285155837722e-02       1.078976725277e+04 
