# dimensionless total lensed [l(l+1)/2pi] C_l's
# for l=2 to 2500, i.e. number of multipoles equal to 2499
#
# -> if you prefer output in CAMB/HealPix/LensPix units/order, set 'format' to 'camb' in input file
# -> if you don't want to see such a header, set 'headers' to 'no' in input file
# -> for CMB lensing (phi), these are C_l^phi-phi for the lensing potential.
#    Remember the conversion factors:
#    C_l^dd (deflection) = l(l+1) C_l^phi-phi
#    C_l^gg (shear/convergence) = 1/4 (l(l+1))^2 C_l^phi-phi
#
# 1:l     2:TT                     3:EE                     4:TE                     5:BB                     6:phiphi                 7:TPhi                   8:Ephi               
    2       1.413431981270e-10       5.472340516415e-15       4.101063166805e-13       2.451859145429e-19       8.485002500266e-09       4.548972930475e-10      -2.145719681861e-12 
    3       1.336686571508e-10       8.121027204957e-15       4.863723659569e-13       4.905092920199e-19       5.206037419916e-09       3.239557638655e-10      -1.765021519227e-12 
    4       1.261874491696e-10       8.235069446441e-15       4.780543114454e-13       8.178170537702e-19       3.620552015305e-09       2.461218290712e-10      -1.293804665988e-12 
    5       1.204107440212e-10       6.514241463199e-15       4.267624719280e-13       1.227281751914e-18       2.703552875325e-09       1.948137897261e-10      -8.553178941610e-13 
    6       1.162995285594e-10       4.251723606884e-15       3.587123809493e-13       1.719110169887e-18       2.112567374079e-09       1.587175888759e-10      -4.904859660904e-13 
    7       1.135617614567e-10       2.426393899164e-15       2.905573060422e-13       2.293537872555e-18       1.704890072543e-09       1.322018677314e-10      -2.147188315353e-13 
    8       1.118341852978e-10       1.370386085049e-15       2.313142276269e-13       2.950823129044e-18       1.409264542377e-09       1.120318923081e-10      -2.835623297155e-14 
    9       1.108961015342e-10       9.303265049710e-16       1.851977283199e-13       3.691240429774e-18       1.186606023390e-09       9.622987771228e-11       7.804340985712e-14 
   10       1.105466756030e-10       7.910490662169e-16       1.533218034401e-13       4.515073832167e-18       1.014033556721e-09       8.362301666501e-11       1.201355818457e-13 
   11       1.106531965608e-10       7.172814043630e-16       1.347004727515e-13       5.422610373235e-18       8.525680819881e-10       7.376095616079e-11       1.163801507381e-13 
   12       1.111544097722e-10       6.263143523250e-16       1.269303489790e-13       6.414133781649e-18       7.449117192665e-10       6.532519958181e-11       8.583171674164e-14 
   13       1.119092992699e-10       5.367152205454e-16       1.270477380351e-13       7.489918707205e-18       6.565507902865e-10       5.835560380877e-11       4.440044433509e-14 
   14       1.128411164434e-10       4.861683692141e-16       1.322262686057e-13       8.650225662400e-18       5.830380627512e-10       5.230150778389e-11       4.071855304602e-15 
   15       1.139646708475e-10       4.845607376797e-16       1.400959802908e-13       9.895296840103e-18       5.211668721170e-10       4.722089894879e-11      -2.700128060877e-14 
   16       1.152881044189e-10       5.144411572832e-16       1.488228874466e-13       1.122535293431e-17       4.685676921588e-10       4.292397624162e-11      -4.534224978655e-14 
   17       1.166666053623e-10       5.544091850301e-16       1.573744183390e-13       1.264059104918e-17       4.234495101669e-10       3.921175946899e-11      -5.101234440562e-14 
   18       1.181602100337e-10       5.969106294099e-16       1.652712063593e-13       1.414118321764e-17       3.842905028450e-10       3.586081943638e-11      -4.678467512552e-14 
   19       1.197819843485e-10       6.503112891255e-16       1.725643801983e-13       1.572727915658e-17       3.504713193629e-10       3.286958150472e-11      -3.608241822188e-14 
   20       1.214512998424e-10       7.275135318939e-16       1.795137333032e-13       1.739900180877e-17       3.206859704570e-10       3.024447515446e-11      -2.331612671467e-14 
   21       1.231824388899e-10       8.335178931885e-16       1.865032775979e-13       1.915645724061e-17       2.944663459381e-10       2.795443496125e-11      -1.150694331163e-14 
   22       1.249864041615e-10       9.693867620096e-16       1.939511522184e-13       2.099972948380e-17       2.711854926389e-10       2.591533781725e-11      -3.264305303679e-15 
   23       1.268489461556e-10       1.131862965804e-15       2.019627093716e-13       2.292889285940e-17       2.505231704582e-10       2.408404889652e-11       5.766191901773e-16 
   24       1.287312756776e-10       1.315971357347e-15       2.104829182251e-13       2.494400677072e-17       2.320013839841e-10       2.241187128397e-11       8.591140816505e-17 
   25       1.306539270501e-10       1.521646817277e-15       2.193156846782e-13       2.704513065639e-17       2.154023900040e-10       2.089938203820e-11      -3.656299514466e-15 
   26       1.326374735736e-10       1.749947021441e-15       2.281407038689e-13       2.923231767223e-17       2.004259711142e-10       1.954603821451e-11      -8.955700652735e-15 
   27       1.346704064653e-10       2.000249446650e-15       2.365299393289e-13       3.150562804009e-17       1.868924721411e-10       1.833244786250e-11      -1.423482892012e-14 
   28       1.367233517629e-10       2.271405252131e-15       2.440087955905e-13       3.386512488264e-17       1.745684799183e-10       1.722489004335e-11      -1.797110581758e-14 
   29       1.388036571318e-10       2.563727160439e-15       2.503428487058e-13       3.631089102269e-17       1.633910078469e-10       1.621286487186e-11      -1.978768628702e-14 
   30       1.409194116041e-10       2.877976877925e-15       2.553597443745e-13       3.884301810346e-17       1.532399512061e-10       1.528253533387e-11      -1.970890819123e-14 
   31       1.430681976775e-10       3.215236940103e-15       2.589164469265e-13       4.146160644189e-17       1.439081584366e-10       1.441303805237e-11      -1.791614666067e-14 
   32       1.452523514575e-10       3.577934398201e-15       2.610448585871e-13       4.416677908596e-17       1.353474946746e-10       1.360407661693e-11      -1.496572154299e-14 
   33       1.474667166420e-10       3.969253137412e-15       2.618662631223e-13       4.695867562201e-17       1.274975255006e-10       1.285723472505e-11      -1.167894232714e-14 
   34       1.496999649415e-10       4.392264450236e-15       2.615302069129e-13       4.983744921282e-17       1.202484965978e-10       1.216961479230e-11      -8.927716793354e-15 
   35       1.519580476471e-10       4.847694522789e-15       2.601180617812e-13       5.280326323506e-17       1.135633327044e-10       1.153877045390e-11      -7.026424896147e-15 
   36       1.542473083266e-10       5.335358967160e-15       2.577093678652e-13       5.585629606922e-17       1.073883991201e-10       1.095858828364e-11      -6.133816306947e-15 
   37       1.565689265551e-10       5.854987115572e-15       2.543654762229e-13       5.899673492018e-17       1.016433272686e-10       1.042020509044e-11      -6.334680323254e-15 
   38       1.589237624007e-10       6.407122009294e-15       2.499812795423e-13       6.222474642338e-17       9.631329225987e-11       9.921323475981e-12      -7.372274351650e-15 
   39       1.613079065412e-10       6.992498658276e-15       2.443828920962e-13       6.554049805801e-17       9.138140624695e-11       9.459386919011e-12      -8.819319009774e-15 
   40       1.637105287609e-10       7.611798605265e-15       2.373645095452e-13       6.894416699637e-17       8.680064913248e-11       9.028746195421e-12      -1.014054122562e-14 
   41       1.661191655807e-10       8.265660744646e-15       2.287275406320e-13       7.243592550789e-17       8.251025713161e-11       8.622548957025e-12      -1.082447863085e-14 
   42       1.685392575724e-10       8.954726428580e-15       2.184186246035e-13       7.601588962906e-17       7.849762393729e-11       8.239785783319e-12      -1.084748109984e-14 
   43       1.709798488659e-10       9.679603153296e-15       2.064328310658e-13       7.968415506361e-17       7.475212604056e-11       7.880091489091e-12      -1.034886513065e-14 
   44       1.734479278642e-10       1.044084903769e-14       1.927768255292e-13       8.344081080664e-17       7.124654752990e-11       7.541673389406e-12      -9.507517223874e-15 
   45       1.759480499645e-10       1.123895611898e-14       1.774664885189e-13       8.728592484892e-17       6.794680783392e-11       7.222092908014e-12      -8.517072443235e-15 
   46       1.784816805598e-10       1.207430025095e-14       1.605174091592e-13       9.121949691009e-17       6.484772605253e-11       6.921164818579e-12      -7.496714601271e-15 
   47       1.810472157697e-10       1.294717192036e-14       1.419526431107e-13       9.524149105719e-17       6.194570156019e-11       6.638725699579e-12      -6.557958012009e-15 
   48       1.836398255640e-10       1.385778585771e-14       1.218059461781e-13       9.935184738832e-17       5.922792645462e-11       6.373746973141e-12      -5.830552408409e-15 
   49       1.862511883490e-10       1.480627768911e-14       1.001222430489e-13       1.035504809227e-16       5.667170079983e-11       6.124269634037e-12      -5.463407571623e-15 
   50       1.888728356637e-10       1.579275789870e-14       7.693935255365e-14       1.078372801579e-16       5.425127146774e-11       5.887994015670e-12      -5.575731590913e-15 
   51       1.915078723329e-10       1.681749875134e-14       5.222622805726e-14       1.122121048547e-16       5.196212572816e-11       5.664389241852e-12      -6.092664746749e-15 
   52       1.941619788327e-10       1.788079232049e-14       2.592876336350e-14       1.166747857325e-16       4.980210823493e-11       5.453043536938e-12      -6.866628581625e-15 
   53       1.968399859686e-10       1.898289697652e-14      -2.013332490205e-15       1.212251236506e-16       4.776415090745e-11       5.253025604822e-12      -7.721828245527e-15 
   54       1.995457793491e-10       2.012403673552e-14      -3.166694854021e-14       1.258628884828e-16       4.583594222549e-11       5.062850183196e-12      -8.452834237217e-15 
   55       2.022821998854e-10       2.130434620562e-14      -6.309344975469e-14       1.305878423185e-16       4.400368527633e-11       4.880930904967e-12      -8.876186922162e-15 
   56       2.050509351888e-10       2.252369090213e-14      -9.630783731678e-14       1.353998183964e-16       4.226522276165e-11       4.707149536017e-12      -9.003471411495e-15 
   57       2.078524338722e-10       2.378180115419e-14      -1.313101668195e-13       1.402986598081e-16       4.061959326799e-11       4.541616235388e-12      -8.908754007048e-15 
   58       2.106858135612e-10       2.507831988602e-14      -1.680971213788e-13       1.452841967151e-16       3.906306050990e-11       4.384201279630e-12      -8.679959899271e-15 
   59       2.135487652132e-10       2.641279984617e-14      -2.066619365474e-13       1.503562461711e-16       3.758894192676e-11       4.234519603064e-12      -8.419520730988e-15 
   60       2.164374574361e-10       2.778470083673e-14      -2.469943252274e-13       1.555146119442e-16       3.618743727963e-11       4.091915338043e-12      -8.245022161144e-15 
   61       2.193480535772e-10       2.919346529507e-14      -2.890832125154e-13       1.607591203342e-16       3.484835120409e-11       3.955669981890e-12      -8.260663865186e-15 
   62       2.222818773763e-10       3.063877113192e-14      -3.329258274402e-13       1.660897374210e-16       3.357036274559e-11       3.825716473333e-12      -8.462688654381e-15 
   63       2.252412422877e-10       3.212033098707e-14      -3.785205280078e-13       1.715064779384e-16       3.235354178182e-11       3.702058694056e-12      -8.813778414909e-15 
   64       2.282278973976e-10       3.363781860572e-14      -4.258641851404e-13       1.770093725464e-16       3.119656066300e-11       3.584553787061e-12      -9.270095502061e-15 
   65       2.312429829147e-10       3.519086855381e-14      -4.749521967464e-13       1.825984687952e-16       3.009661463167e-11       3.472903792443e-12      -9.781004204674e-15 
   66       2.342869856613e-10       3.677907593338e-14      -5.257785017910e-13       1.882738320902e-16       2.904934224264e-11       3.366647283154e-12      -1.028879220957e-14 
   67       2.373596945637e-10       3.840199609780e-14      -5.783355943663e-13       1.940355466556e-16       2.804874578277e-11       3.265151000773e-12      -1.072839206598e-14 
   68       2.404607347607e-10       4.005904454280e-14      -6.326116643351e-13       1.998837165434e-16       2.708879366401e-11       3.167775943687e-12      -1.104188832403e-14 
   69       2.435913950900e-10       4.174917366061e-14      -6.885813150206e-13       2.058184667403e-16       2.616878252104e-11       3.074433407713e-12      -1.122607500330e-14 
   70       2.467530926419e-10       4.347112967534e-14      -7.462129813116e-13       2.118399440183e-16       2.528892364663e-11       2.985127105749e-12      -1.129407842158e-14 
   71       2.499467977273e-10       4.522354388517e-14      -8.054715783184e-13       2.179483178584e-16       2.444872124433e-11       2.899784851650e-12      -1.126152197351e-14 
   72       2.531730041671e-10       4.700492982468e-14      -8.663184419548e-13       2.241437814164e-16       2.364693586553e-11       2.818254657696e-12      -1.114662574524e-14 
   73       2.564316995815e-10       4.881368042702e-14      -9.287112695190e-13       2.304265524880e-16       2.288154784654e-11       2.740300832058e-12      -1.097030612913e-14 
   74       2.597223356788e-10       5.064806518624e-14      -9.926040602746e-13       2.367968744745e-16       2.214972074565e-11       2.665600076266e-12      -1.075627543840e-14 
   75       2.630437985451e-10       5.250622731953e-14      -1.057947056032e-12       2.432550173480e-16       2.144776478025e-11       2.593737582679e-12      -1.053114152180e-14 
   76       2.663949430060e-10       5.438636639329e-14      -1.124691731642e-12       2.498012405992e-16       2.077205313411e-11       2.524311731159e-12      -1.031897001886e-14 
   77       2.697763738869e-10       5.628733092185e-14      -1.192806948461e-12       2.564356721450e-16       2.012204460952e-11       2.457278847190e-12      -1.012360613639e-14 
   78       2.731889371047e-10       5.820812917847e-14      -1.262265652282e-12       2.631584089901e-16       1.949774830377e-11       2.392664514037e-12      -9.943295165068e-15 
   79       2.766331665607e-10       6.014775426794e-14      -1.333040128160e-12       2.699695534694e-16       1.889880288945e-11       2.330458902319e-12      -9.775920142849e-15 
   80       2.801092659966e-10       6.210518509192e-14      -1.405102044551e-12       2.768692134336e-16       1.832445959089e-11       2.270615094392e-12      -9.618987921643e-15 
   81       2.836170908504e-10       6.407938731431e-14      -1.478422497440e-12       2.838575024352e-16       1.777356516058e-11       2.213047408728e-12      -9.469615233925e-15 
   82       2.871561301124e-10       6.606931432657e-14      -1.552972054476e-12       2.909345399138e-16       1.724454485566e-11       2.157629724300e-12      -9.324514759368e-15 
   83       2.907254881809e-10       6.807390821309e-14      -1.628720799109e-12       2.981004513830e-16       1.673538541437e-11       2.104193804962e-12      -9.179981191467e-15 
   84       2.943242864001e-10       7.009199839307e-14      -1.705634669126e-12       3.053553730817e-16       1.624412463165e-11       2.052571568427e-12      -9.032776247383e-15 
   85       2.979529838996e-10       7.212197612537e-14      -1.783663678176e-12       3.126994664113e-16       1.577045062814e-11       2.002733614832e-12      -8.882982791480e-15 
   86       3.016122434739e-10       7.416206756248e-14      -1.862751813463e-12       3.201329062442e-16       1.531433772699e-11       1.954670697890e-12      -8.731600518789e-15 
   87       3.053025204423e-10       7.621043053306e-14      -1.942840549851e-12       3.276558769271e-16       1.487555504345e-11       1.908350898911e-12      -8.579690238120e-15 
   88       3.090240515586e-10       7.826515378751e-14      -2.023868831719e-12       3.352685725416e-16       1.445365797562e-11       1.863718689748e-12      -8.428375046972e-15 
   89       3.127768439203e-10       8.032425624367e-14      -2.105773054818e-12       3.429711971658e-16       1.404797969510e-11       1.820693995745e-12      -8.278841506460e-15 
   90       3.165606638783e-10       8.238568623234e-14      -2.188487048122e-12       3.507639651346e-16       1.365762263782e-11       1.779171258683e-12      -8.132340816224e-15 
   91       3.203750259460e-10       8.444732074301e-14      -2.271942055685e-12       3.586471013009e-16       1.328144999466e-11       1.739018499727e-12      -7.990189989351e-15 
   92       3.242191817090e-10       8.650696466941e-14      -2.356066718497e-12       3.666208412966e-16       1.291807720224e-11       1.700076382371e-12      -7.853773027291e-15 
   93       3.280923845484e-10       8.856244916200e-14      -2.440790139543e-12       3.746854761313e-16       1.256620063594e-11       1.662197275387e-12      -7.724305242976e-15 
   94       3.319947534428e-10       9.061194524476e-14      -2.526051645732e-12       3.828414930950e-16       1.222565872099e-11       1.625371197483e-12      -7.602083131636e-15 
   95       3.359265191814e-10       9.265369619107e-14      -2.611792467442e-12       3.910894566287e-16       1.189651542233e-11       1.589617170350e-12      -7.487123327849e-15 
   96       3.398877529193e-10       9.468592321761e-14      -2.697952809994e-12       3.994299667317e-16       1.157873343365e-11       1.554944523657e-12      -7.379387356421e-15 
   97       3.438783588728e-10       9.670682609036e-14      -2.784471877824e-12       4.078636598321e-16       1.127217029679e-11       1.521352507077e-12      -7.278779556072e-15 
   98       3.478980670150e-10       9.871458373064e-14      -2.871287898660e-12       4.163912096553e-16       1.097657452124e-11       1.488829902299e-12      -7.185145003134e-15 
   99       3.519464257713e-10       1.007073548212e-13      -2.958338147703e-12       4.250133280947e-16       1.069158170352e-11       1.457354635056e-12      -7.098267435237e-15 
  100       3.560227947148e-10       1.026832784123e-13      -3.045558971802e-12       4.337307660804e-16       1.041671064667e-11       1.426893387138e-12      -7.017867175004e-15 
  101       3.601263372620e-10       1.046404745275e-13      -3.132885813631e-12       4.425443144488e-16       1.015135947968e-11       1.397401208418e-12      -6.943599053743e-15 
  102       3.642560133679e-10       1.065770447702e-13      -3.220253235870e-12       4.514548048127e-16       9.894801776928e-12       1.368821128867e-12      -6.875050335134e-15 
  103       3.684105722218e-10       1.084910729292e-13      -3.307594945377e-12       4.604631104303e-16       9.646182677616e-12       1.341083770577e-12      -6.811738638924e-15 
  104       3.725888173318e-10       1.103806557236e-13      -3.394843741823e-12       4.695700880139e-16       9.404712789517e-12       1.314123645781e-12      -6.753148699779e-15 
  105       3.767904582920e-10       1.122439984616e-13      -3.481931303606e-12       4.787763923290e-16       9.170288089611e-12       1.287931393950e-12      -6.698852771086e-15 
  106       3.810153609946e-10       1.140793334939e-13      -3.568788417953e-12       4.880826380547e-16       8.942946918350e-12       1.262507910707e-12      -6.648402690832e-15 
  107       3.852632812565e-10       1.158848921546e-13      -3.655345076955e-12       4.974894568262e-16       8.722677986680e-12       1.237848089817e-12      -6.601290869222e-15 
